1 71 92 71 88 51 74 60 73 63 69 64 63 63 68 63 69 60 88 48 101 115 100 117 40 30 50 42 54 86 71 84 83 55 79 66 111 129 62 54 105 66 85 65 75 61 65 69 76 94 60 83 58 70 81 59 50 55 58 73 59 148 53 76 71 80 69 92 59 50 94 66 40 58 75 65 134 68 67 81 53 96 78 62 82 64 74 86 112 63 82 109 97 107 64 63 42 72 72 66 68 78 68 81 47 74 112 109 100 69 68 58 52 51 72 70 69 66 58 57 88 76 64 105 80 82 58 91 62 98 91 80 73 83 70 94 75 86 68 68 77 69 67 71 62 80 66 76 40 68 44 70 58 81 80 61 93 56 48 111 92 59 99 74 80 86 75 77 64 59 78 72 74 58 53 92 76 79 130 100 70 56 63 83 84 114 52 56 81 70 68 52 58 69 83 81 80 61 66 50 69 77 75 63 60 68 56 81 71 85 75 69 72 55 59 105 75 112 61 65 88 85 83 64 64 115 60 67 55 70 76 82 77 67 69 92 68 64 77 67 54 89 58 57 84 60 61 57 70 74 89 60 66 65 76 88 63 97 58 66 73 98 103 89 93 55 67 60 74 77 65 87 90 106 117 99 62 62 54 77 105 81 76 70 124 72 78 64 65 53 72 76 81 62 59 80 70 54 129 55 71 43 77 50 87 64 73 70 82 69 52 63 57 85 51 58 45 111 61 78 86 75 36 81 61 60 68 77 87 66 61 71 70 104 71 129 77 148 110 84 72 86 74 63 70 68 78 58 141 82 73 65 80 79 60 101 87 74 63 90 79 104 94 79 61 99 110 82 103 103 72 58 81 73 60 88 51 66 65 56 69 66 72 136 55 78 74 85 98 92 71 98 73 73 60 66 85 86 98 62 72 92 82 149 66 57 68 76 63 58 118 93 68 84 47 79 87 42 49 109 44 63 76 67 70 67 66 53 104 39 90 61 71 61 100 67 79 71 71 61 43 51 60 82 76 57 56 83 54 68 73 76 64 111 71 63 62 53 70 65 60 65 64 58 76 80 66 57 77 68 73 69 88 118 99 112 63 63 81 69 58 86 55 114 87 72 79 122 78 59 65 84 53 67 110 67 84 84 83 55 76 67 66 93 74 57 82 114 54 74 103 62 62 52 61 80 63 81 69 54 48 53 78 69 68 80 77 81 73 48 61 88 58 103 116 90 70 72 90 73 111 71 57 75 45 90 54 110 103 93 55 72 82 76 80 72 93 89 60 67 117 58 153 63 88 66 85 67 83 55 97 71 56 66 71 121 110 64 61 62 70 75 63 83 54 135 69 66 128 64 52 65 65 70 71 77 60 94 56 70 66 65 99 84 57 74 88 69 60 63 68 105 63 63 63 59 89 82 58 66 87 57 58 79 74 81 79 105 76 87 71 78 68 53 61 58 103 54 88 51 77 95 64 59 86 92 108 68 70 33 64 80 77 74 71 69 55 75 91 82 64 106 73 73 90 64 52 82 63 62 64 85 58 72 59 78 52 58 78 78 66 39 84 96 83 76 82 76 69 70 66 59 107 72 82 78 59 64 74 78 101 60 45 81 55 83 68 75 87 60 73 124 110 103 78 71 84 72 86 83 60 63 86 87 86 60 97 67 71 75 75 57 48 63 44 40 64 58 74 60 72 74 69 66 59 82 65 60 103 87 72 60 67 61 101 70 62 61 85 66 78 100 69 60 63 137 76 60 76 63 60 54 103 98 86 66 74 91 91 59 63 71 59 78 73 79 80 73 62 54 87 84 84 76 73 74 85 68 53 60 65 66 79 74 77 57 66 70 58 66 88 49 76 61 64 64 115 72 67 81 81 62 61 57 78 81 75 70 79 76 60 80 89 90 81 80 88 125 69 105 79 60 79 70 67 87 78 174 51 67 64 70 72 115 63 46 77 97 66 69 67 58 64 78 44 81 67 67 91 64 74 55 61 69 66 63 71 67 55 67 61 81 65 103 63 118 52 103 67 59 108 75 73 59 72 80 73 77 95 85 78 79 63 69 74 76 68 80 55 82 89 54 114 64 66 96 76 64 85 127 60 82 86 62 66 94 101 71 161 82 70 83 56 59 94 64 68 66 68 69 93 79 69 65 50 70 55 65 112 59 67 67 80 65 71 149 67 52 141 70 104 54 74 106 75 71 84 60 96 65 45 99 74 68 60 55 99 51 111 72 72 101 76 79 91 88 97 62 59 74 74 82 79 81 76 82 88 60 58 127 62 52 103 106 83 66 85 99 82 93 72 74 107 102 140 50 39 65 69 102 73 55 85 70 69 78 70 59 121 72 38 69 97 86 67 73 86 66 71 97 62 59 65 76 78 80 73 53 61 58 91 70 95 78 75 72 82 90 78 59 63 68 78 108 65 83 59 60 116 93 77 104 40 96 80 74 64 70 63 75 69 72 71 63 68 69 83 92 58 39 63 66 91 68 72 74 92 98 56 65 62 61 58 116 68 71 107 53 53 59 54 45 94 76 70 96 52 65 48 73 57 43 42 59 81 78 99 63 57 60 65 72 71 64 79 61 60 75 72 72 76 79 68 78 78 65 44 54 115 81 57 59 89 73 96 119 139 103 69 76 71 120 65 65 61 91 73 81 62 61 86 100 103 56 70 67 117 68 66 81 105 89 90 58 70 94 101 60 98 60 61 105 79 47 79 96 73 51 58 72 78 84 66 65 64 74 66 72 82 78 80 62 75 59 77 40 63 124 100 58 96 74 80 90 119 50 60 57 76 96 68 82 64 55 57 69 93 140 79 74 64 48 102 65 58 76 66 90 63 91 96 71 111 51 60 60 65 103 79 64 62 65 70 78 52 61 67 83 52 71 93 87 60 54 60 62 71 54 67 115 141 58 66 70 78 58 68 60 86 52 67 80 74 80 106 68 70 73 74 86 76 76 55 53 74 96 73 77 72 67 63 71 81 93 73 96 87 99 65 83 63 65 90 52 52 83 70 75 55 82 65 102 119 69 68 79 49 38 70 83 77 84 86 52 79 60 78 65 83 66 75 102 60 93 128 75 72 117 87 80 78 64 56 75 86 60 118 59 82 58 63 53 52 64 87 80 61 84 58 62 115 69 96 65 83 64 47 63 61 54 77 90 53 50 75 61 69 60 80 73 118 79 54 61 56 57 58 81 44 87 58 59 105 78 83 86 76 66 74 60 66 88 68 56 46 64 55 98 66 60 53 68 90 66 58 72 73 91 68 117 50 78 57 70 97 92 78 78 69 92 90 66 101 147 60 69 66 77 63 61 54 88 50 92 63 53 56 84 57 73 71 72 51 103 64 64 64 61 65 64 49 72 81 78 89 63 59 70 59 87 71 73 56 88 54 149 50 76 60 67 103 51 68 68 139 60 78 91 68 60 61 143 109 73 78 106 63 56 73 57 64 91 74 104 107 61 77 43 57 89 68 68 71 67 88 85 50 81 92 48 83 57 73 68 98 81 66 81 55 75 84 77 73 68 82 128 68 46 72 50 69 142 65 62 126 79 54 74 68 62 62 84 69 55 75 57 71 77 73 92 59 86 48 70 82 59 59 52 69 46 66 60 75 77 93 79 61 91 89 81 79 60 77 58 60 70 64 70 73 63 99 69 93 55 69 61 55 73 71 110 86 94 63 68 56 77 64 96 49 50 54 96 64 123 71 79 60 60 70 66 108 106 71 63 72 70 50 63 56 129 71 81 61 51 77 62 125 60 102 98 118 62 60 84 163 74 70 72 61 57 72 46 50 51 76 76 94 61 60 66 65 67 93 74 66 78 74 65 73 97 78 65 68 56 79 87 99 60 107 68 78 63 85 69 62 84 107 59 84 67 65 81 58 69 75 46 75 112 112 76 80 79 80 79 85 95 67 57 72 96 76 81 60 56 41 83 75 63 60 66 57 50 64 55 64 108 114 111 65 71 83 62 66 103 68 80 88 63 60 52 129 55 69 47 76 74 67 110 71 78 57 53 91 75 62 75 69 76 55 88 72 58 76 62 52 64 111 55 74 74 100 58 64 73 96 59 74 47 74 65 74 68 72 92 75 50 81 73 83 93 61 112 67 61 74 67 61 62 112 48 140 112 37 129 87 49 82 82 48 74 73 77 68 71 58 76 58 111 73 60 88 67 68 75 45 88 64 59 60 65 60 153 83 80 63 72 83 91 55 65 58 59 64 97 65 69 136 76 73 67 123 67 69 96 54 69 61 85 92 61 113 63 72 68 103 110 58 78 67 61 58 57 80 75 56 60 77 94 116 104 80 89 78 61 78 87 65 65 57 62 105 61 67 78 59 89 72 63 63 65 73 73 114 80 60 71 54 90 101 109 54 56 83 82 53 55 54 77 70 76 73 70 84 54 45 64 162 67 143 73 94 57 77 82 75 54 76 114 103 78 119 71 70 112 87 66 82 55 78 67 67 74 50 74 73 76 55 101 55 83 88 55 61 69 139 91 82 93 69 74 61 67 69 60 79 95 85 71 72 73 78 74 77 122 67 79 56 82 117 75 62 109 83 55 54 73 75 66 74 89 63 70 76 83 65 66 73 75 73 66 83 55 48 72 61 106 53 160 52 71 57 70 44 56 72 66 83 104 68 46 60 66 62 65 87 86 58 67 77 62 46 64 66 68 124 66 60 84 78 64 62 65 77 61 66 71 60 79 106 80 68 56 92 64 64 78 70 58 57 69 73 77 77 65 73 47 66 57 80 65 93 55 68 75 63 86 64 51 60 100 105 76 68 69 88 51 71 68 88 70 74 64 100 62 67 90 71 61 72 57 106 65 71 76 79 91 70 58 53 85 57 50 89 63 74 87 82 52 73 55 64 64 72 90 55 83 61 61 69 90 74 61 62 55 84 85 109 101 80 62 89 76 66 71 79 70 68 63 59 69 96 65 77 61 80 91 67 61 75 80 78 59 83 54 72 78 144 71 83 56 65 109 56 103 69 65 75 80 90 83 68 60 59 132 102 77 55 87 51 66 94 61 74 63 70 84 83 80 59 95 70 64 75 37 74 69 95 61 72 67 73 80 64 62 80 67 70 74 57 49 76 70 71 65 69 66 31 71 60 52 70 77 59 87 87 80 64 71 65 60 42 77 88 81 77 75 73 68 84 39 75 99 104 97 83 77 83 61 66 46 96 51 45 69 79 60 73 74 52 76 70 68 58 64 111 84 80 63 58 58 59 88 68 71 96 79 68 64 111 119 64 84 68 88 73 60 84 67 76 81 57 73 60 66 82 74 72 100 55 106 84 84 74 61 80 79 82 76 89 63 75 67 72 73 42 74 59 68 73 76 71 33 97 59 61 67 111 113 71 117 75 62 79 117 67 97 59 61 66 61 63 73 80 72 72 60 66 65 73 56 81 54 67 57 70 64 84 99 63 89 100 67 52 112 65 64 73 78 96 106 69 76 64 89 77 55 64 47 69 110 84 63 78 67 65 57 72 107 48 102 68 43 79 75 62 75 73 53 88 56 70 77 84 73 32 122 48 58 60 92 58 78 100 69 65 67 65 94 67 87 48 56 56 65 62 74 72 65 74 93 51 54 55 67 62 97 69 67 138 64 112 94 56 108 69 147 94 80 57 49 57 74 66 69 68 60 94 75 84 73 57 61 77 63 59 74 116 65 52 64 64 94 73 68 68 70 53 67 77 69 77 84 78 60 79 77 68 32 58 67 100 85 94 69 110 88 90 51 65 65 106 72 82 52 63 68 46 73 80 53 65 70 74 47 69 81 55 64 67 66 75 67 70 128 73 96 58 56 94 76 80 72 100 54 93 56 82 70 73 69 66 72 98 115 84 70 57 71 58 117 76 81 67 84 87 67 80 73 55 64 63 61 59 72 76 54 76 82 53 61 71 80 100 69 75 71 56 68 52 89 60 78 78 98 67 95 93 67 61 93 79 82 75 73 60 88 60 88 54 36 68 62 87 78 52 78 93 70 66 105 84 106 58 115 69 64 45 83 112 82 94 80 83 50 60 63 64 109 54 56 68 94 89 80 71 69 63 85 75 73 104 84 67 117 60 55 52 53 63 51 65 70 71 69 61 72 73 66 50 57 56 79 61 72 78 70 69 72 92 74 68 70 55 84 89 64 76 60 78 73 95 62 76 86 68 51 87 67 61 62 77 69 56 75 62 64 54 75 94 76 48 88 63 78 96 87 52 71 69 54 76 64 72 66 63 67 98 59 55 91 115 107 78 67 61 66 64 69 85 83 54 78 57 58 76 61 70 77 61 72 83 57 69 83 56 68 77 64 81 75 84 56 73 57 56 155 92 65 66 86 58 74 64 41 61 66 79 72 55 74 59 105 57 118 54 81 66 78 70 114 118 64 66 61 57 33 60 101 81 86 74 72 68 117 139 59 84 93 74 60 69 64 81 81 55 54 76 79 103 101 83 51 80 57 88 66 59 68 66 70 63 60 91 102 124 92 96 73 62 54 74 83 107 76 60 64 89 98 54 70 66 82 66 84 88 67 57 108 51 68 57 61 74 78 111 69 82 56 85 61 63 100 61 75 72 78 85 92 33 65 82 72 89 105 73 55 142 57 86 65 58 60 79 91 99 99 149 81 77 68 50 60 73 83 87 64 71 71 58 54 98 54 89 66 93 97 57 105 71 68 108 59 95 90 86 68 64 79 77 65 91 60 70 59 63 56 68 87 37 60 78 78 76 95 74 75 66 66 72 88 50 81 91 115 56 72 72 74 106 69 64 51 64 65 87 87 65 70 86 130 66 104 75 61 92 52 61 82 55 94 65 62 51 78 77 100 73 99 84 90 63 77 106 52 72 106 96 60 62 52 65 78 81 80 74 75 80 67 62 58 70 73 82 77 79 67 81 106 77 38 76 68 70 77 82 65 51 63 56 72 73 60 74 60 69 111 96 47 62 103 58 109 95 60 71 80 73 86 65 143 82 56 94 116 109 77 53 73 88 71 74 57 46 66 71 73 38 69 65 70 98 56 63 74 83 117 85 99 65 67 81 68 81 64 71 95 62 81 41 80 63 43 79 85 74 64 103 79 78 61 76 58 84 107 71 75 112 92 70 104 66 76 61 69 77 60 99 58 87 50 79 65 87 73 66 79 61 73 53 101 60 53 49 64 61 43 70 103 91 81 80 100 101 56 65 74 68 68 79 70 65 63 69 79 95 100 107 84 80 57 57 67 72 60 74 88 58 60 76 84 61 76 78 66 62 126 65 55 85 93 85 87 66 65 67 61 107 66 76 50 81 67 67 62 62 74 96 119 68 54 161 75 73 89 76 126 83 66 58 92 65 69 69 68 71 67 63 34 76 70 59 60 63 87 52 104 56 80 71 119 51 100 54 83 86 81 77 61 67 87 97 60 68 84 71 56 70 87 62 84 52 87 83 60 89 137 77 78 56 62 77 67 72 60 65 116 65 107 99 80 72 85 72 67 67 38 112 102 99 75 72 60 78 84 59 75 99 81 89 53 50 59 127 84 68 94 118 54 112 63 72 64 50 85 142 67 74 81 115 88 70 56 53 73 63 60 61 115 80 62 77 54 82 67 71 138 57 60 79 72 84 78 56 79 70 60 88 78 62 70 70 71 109 59 60 85 48 82 65 66 76 65 87 73 77 73 69 54 72 73 79 73 90 75 129 87 64 55 95 77 69 79 78 80 77 61 92 84 85 114 58 78 81 57 88 60 77 59 55 55 77 64 93 77 77 71 60 106 68 64 62 68 97 64 61 92 75 77 75 77 70 70 92 81 57 64 67 71 65 86 91 60 81 52 127 63 90 45 54 64 74 77 79 81 59 69 64 100 62 57 58 92 64 135 71 62 94 51 76 75 70 80 95 34 66 86 74 53 74 56 60 107 78 69 68 58 109 74 69 59 59 72 170 80 92 75 105 71 76 108 89 93 67 109 81 51 101 83 89 59 85 76 77 70 66 105 94 55 83 91 68 93 73 69 65 60 54 52 78 89 76 50 125 72 51 87 61 54 62 62 86 78 78 58 63 67 66 75 112 90 64 81 67 67 80 106 62 56 70 37 69 69 55 46 61 70 72 73 90 90 62 65 84 68 76 67 85 68 72 86 60 53 83 77 63 58 69 86 71 67 67 96 86 66 66 71 81 95 87 71 72 74 109 98 72 57 81 67 74 75 60 87 56 72 95 65 64 58 66 48 66 76 80 92 82 42 69 109 62 81 63 72 53 98 93 68 57 78 88 104 60 49 67 58 67 63 118 82 60 99 81 93 83 59 63 61 74 72 117 53 86 74 69 53 83 65 102 88 72 77 61 96 91 67 63 80 100 48 64 83 79 84 78 78 90 81 73 81 47 58 72 93 88 65 78 54 72 114 95 79 50 78 70 101 81 90 53 46 65 56 68 60 79 49 67 67 60 88 85 70 70 111 157 67 105 62 85 93 66 112 86 79 87 73 76 66 87 79 103 57 58 54 81 86 68 87 75 106 81 84 74 91 60 57 69 100 84 87 61 50 69 81 65 88 65 101 76 80 84 68 74 116 131 92 76 99 129 60 60 85 59 69 55 88 69 116 80 105 77 81 60 56 48 64 86 135 60 95 92 62 84 83 56 103 68 55 88 67 84 68 102 86 61 74 94 55 113 84 107 52 67 58 72 58 52 78 69 77 66 87 72 82 37 69 93 65 48 71 69 64 74 63 60 79 73 63 92 38 68 88 73 68 58 74 65 50 70 96 81 58 63 86 94 51 66 74 89 74 40 79 82 73 84 95 120 51 70 71 81 76 76 63 139 73 70 82 55 84 61 78 117 71 89 65 59 64 60 103 89 50 70 66 79 65 61 71 112 85 92 66 123 120 72 47 111 49 82 55 56 70 55 71 63 66 67 54 72 112 52 71 65 67 75 98 61 57 93 66 81 66 77 50 68 57 78 125 93 121 95 57 68 81 82 133 53 86 70 74 69 74 68 63 125 132 62 61 49 73 52 104 66 59 77 112 71 99 67 72 65 59 53 52 64 66 65 62 68 77 74 109 71 99 81 69 54 100 66 65 49 68 55 63 97 80 92 70 103 63 60 70 75 64 58 44 80 76 71 71 56 59 76 65 63 72 65 77 109 60 76 63 67 68 60 84 60 81 66 80 50 58 83 77 71 59 63 82 59 99 63 127 72 60 71 66 78 107 68 58 68 62 101 88 105 72 70 69 54 67 66 60 55 124 60 78 63 75 58 54 70 51 91 77 70 74 60 69 71 60 66 66 85 69 50 69 72 63 109 90 60 65 69 88 86 89 61 103 70 63 86 88 61 57 83 67 111 55 86 62 73 59 135 91 57 69 111 78 97 61 99 59 71 69 90 93 67 55 90 65 59 86 45 72 74 75 87 71 52 80 75 106 61 72 68 76 61 52 60 64 63 62 87 61 60 78 83 77 72 58 81 97 67 56 78 57 114 58 78 63 59 83 123 67 71 51 74 88 80 67 118 83 65 73 63 82 65 67 54 66 59 76 67 71 139 66 71 79 128 91 63 59 59 99 90 94 86 101 72 87 60 103 60 68 93 68 100 65 73 68 54 56 57 77 73 75 64 61 49 58 78 53 68 75 73 123 89 89 59 60 59 92 67 49 103 89 83 86 59 131 80 78 73 104 58 101 51 78 138 77 55 62 83 68 111 61 68 127 93 55 67 70 73 54 149 69 76 72 93 37 58 67 132 83 80 67 66 72 68 62 106 72 100 58 74 91 62 58 62 56 91 110 79 64 101 64 82 116 176 72 82 49 65 53 73 102 82 61 72 58 102 79 77 69 59 33 72 78 62 85 76 112 58 86 73 76 56 62 91 80 132 56 88 68 83 86 104 114 62 65 67 102 62 92 59 87 66 70 73 73 73 79 91 75 74 97 82 104 59 108 68 76 59 71 58 73 65 60 91 106 95 61 102 60 84 66 71 62 75 89 108 73 74 65 146 89 71 67 63 87 108 86 97 83 74 60 74 70 85 72 67 103 62 89 67 54 72 82 83 75 73 78 93 68 83 74 69 59 61 77 79 117 72 62 121 140 65 88 75 67 78 56 81 92 66 82 64 62 56 52 77 49 71 89 87 73 62 52 59 59 83 57 70 78 65 53 72 75 81 70 58 96 112 50 133 88 64 76 58 60 60 64 113 65 98 82 60 60 93 67 80 56 72 50 65 81 44 66 78 58 63 77 73 117 59 107 152 57 73 71 71 64 36 88 89 69 108 52 98 70 97 31 74 57 62 54 65 91 58 77 66 56 78 90 58 57 62 53 55 69 91 68 49 67 69 70 96 68 64 65 71 70 82 79 88 72 60 82 45 59 63 70 73 64 109 108 61 69 102 146 65 58 59 64 87 70 52 89 76 74 89 59 68 60 88 66 59 81 83 59 97 72 93 77 101 86 67 63 88 81 67 66 65 68 59 64 48 64 64 68 66 69 69 76 82 69 58 77 97 79 67 68 64 95 82 56 71 85 87 91 103 64 70 82 77 83 108 53 46 61 94 65 66 80 70 58 61 80 59 93 59 60 62 65 62 56 70 92 82 57 53 60 86 68 71 65 60 77 52 79 55 72 91 65 60 73 74 60 63 58 78 79 64 67 105 86 63 64 59 62 89 62 56 73 87 76 74 100 129 83 70 61 69 74 96 188 60 77 89 60 59 47 64 63 67 59 67 86 75 70 94 108 100 92 120 53 109 84 48 65 60 86 99 84 67 69 53 44 82 120 76 70 59 60 56 58 62 82 79 75 69 70 67 91 95 66 141 68 77 62 67 121 70 62 74 70 55 99 46 78 115 112 60 92 82 65 71 87 65 95 60 55 68 65 56 59 96 62 68 125 59 52 60 58 100 97 53 83 94 97 102 70 64 50 60 57 66 67 72 71 86 82 61 66 67 63 69 57 86 82 54 54 64 75 72 58 44 66 62 62 72 99 73 62 63 68 60 70 142 66 105 55 66 59 62 42 67 73 56 68 71 73 74 56 93 72 68 60 69 56 155 70 54 73 107 67 162 93 53 97 66 70 63 63 75 76 71 54 83 49 96 106 111 62 86 83 62 74 92 70 86 86 69 67 77 69 97 78 73 59 66 81 62 102 111 63 94 64 67 93 118 96 64 148 82 80 73 44 80 98 63 78 83 63 66 83 61 91 82 51 74 66 130 61 88 64 77 85 82 81 72 142 72 84 61 82 71 91 71 54 60 81 101 69 87 64 62 71 72 48 91 105 74 67 58 75 69 75 75 78 86 91 83 50 71 90 117 76 76 50 84 75 93 73 60 60 112 70 69 63 78 56 120 62 110 91 86 70 61 105 78 155 70 76 86 156 66 70 84 65 66 61 75 68 114 54 68 63 120 56 55 73 75 53 67 77 82 70 85 69 67 65 74 62 75 114 80 53 83 63 67 68 72 76 105 112 71 77 88 78 56 79 70 86 78 77 47 66 68 81 79 68 61 89 56 77 62 96 61 72 55 65 68 66 87 75 65 74 52 88 84 58 62 42 110 64 61 78 85 81 78 50 78 64 61 75 80 70 83 83 56 69 59 97 84 62 68 58 61 85 77 122 65 86 70 74 62 96 72 83 79 77 78 76 113 71 67 60 102 85 75 99 98 124 67 99 65 166 110 60 57 48 101 118 61 101 59 77 97 69 74 79 56 58 79 84 120 66 62 71 88 74 109 54 85 68 111 84 60 100 84 99 63 57 63 81 62 77 93 62 82 108 66 66 51 79 56 76 67 86 64 78 76 76 61 71 89 77 42 52 67 79 88 61 60 67 93 80 81 70 60 60 79 73 99 53 99 75 92 82 87 71 59 77 112 68 59 64 70 62 69 56 73 62 161 152 84 57 86 53 69 56 62 62 52 83 59 88 71 62 65 60 98 74 102 73 67 82 60 98 54 37 45 36 67 53 79 66 58 112 76 45 152 62 90 77 59 44 158 82 67 83 75 85 154 79 87 82 69 59 39 63 67 59 58 53 70 74 70 78 75 92 63 84 46 42 71 105 65 67 58 114 76 128 64 58 79 72 92 74 88 78 69 70 80 85 78 64 86 88 84 60 99 93 53 76 124 63 103 101 98 61 67 52 79 80 99 65 98 59 67 79 74 73 52 65 62 81 67 115 78 52 64 97 89 69 97 72 61 87 55 52 91 73 89 83 83 70 89 66 60 66 76 79 51 64 76 59 73 61 72 59 64 106 65 62 66 79 59 65 57 86 67 108 64 67 67 77 62 63 59 68 50 32 77 83 90 86 65 99 62 99 71 60 72 56 106 67 63 75 61 72 99 73 61 76 77 70 68 78 62 74 71 78 69 109 106 74 69 85 60 112 90 66 61 63 72 55 59 89 57 58 63 134 78 60 74 84 104 86 64 58 79 76 69 68 63 54 104 110 70 102 121 58 69 60 133 84 103 75 90 65 60 105 76 115 101 70 104 62 51 78 62 81 53 94 89 112 66 62 73 73 81 128 56 61 56 63 105 67 60 108 102 69 169 63 63 82 77 68 61 91 65 190 63 63 64 68 68 64 88 70 83 66 82 66 68 86 81 60 56 62 80 67 68 87 70 76 91 54 53 90 47 88 57 58 72 113 90 68 64 71 56 70 87 91 80 56 44 57 68 69 65 74 93 76 81 71 53 94 53 76 78 61 77 56 57 153 55 63 69 82 58 57 74 68 77 58 71 80 84 68 41 79 60 60 60 66 63 76 109 67 101 89 94 76 95 61 62 88 59 91 53 64 54 74 84 80 63 50 67 86 103 92 74 55 61 90 74 84 72 64 77 57 71 89 92 71 61 79 102 62 59 78 57 74 65 75 71 85 52 59 79 69 60 83 51 54 60 67 56 59 66 59 40 62 81 78 65 71 71 88 67 107 74 77 58 85 61 65 76 91 52 64 74 51 86 69 65 90 66 72 72 110 91 77 33 79 69 67 74 65 55 105 74 68 62 70 94 77 46 76 116 67 89 71 72 92 79 55 71 76 52 83 86 87 72 58 66 87 65 84 118 53 108 83 53 148 74 66 78 86 47 75 87 96 103 95 57 71 91 79 73 68 62 77 49 95 74 51 90 68 89 88 70 125 65 87 104 79 89 62 71 48 82 57 72 73 122 66 59 72 51 76 73 66 66 60 61 74 63 54 61 112 137 86 50 78 62 75 80 55 63 58 79 81 58 59 114 57 79 156 55 89 40 90 56 58 60 123 113 65 112 58 85 52 55 47 48 61 62 81 81 63 63 60 59 59 46 90 86 65 59 79 79 63 105 87 73 66 73 54 73 60 80 71 94 83 67 62 55 87 88 74 106 89 86 58 65 99 81 78 99 67 62 72 90 91 70 59 160 61 70 78 110 75 74 39 68 62 59 71 79 69 71 93 65 82 97 60 89 161 98 92 75 71 94 96 80 74 58 56 60 61 65 66 81 97 66 73 73 83 63 61 62 90 62 50 86 58 82 74 51 66 62 79 61 59 93 75 83 61 93 72 68 61 76 76 65 68 94 51 68 76 103 37 122 67 64 66 55 69 52 71 60 44 40 104 69 109 83 92 72 55 61 95 58 81 77 101 85 73 83 66 63 64 76 56 74 58 88 62 112 87 88 62 40 95 74 80 94 64 76 63 64 92 39 62 74 69 57 86 67 63 109 69 120 89 80 69 67 101 60 102 70 66 69 74 81 60 53 66 97 61 69 84 82 93 62 92 75 81 75 89 61 98 43 50 69 57 78 74 91 55 97 74 88 68 68 66 87 77 84 64 55 68 80 75 97 82 74 71 63 59 69 84 58 55 62 93 118 57 68 57 77 79 92 98 55 79 160 101 84 63 70 96 66 81 56 155 70 58 78 75 78 76 72 80 80 82 62 74 58 72 70 76 70 62 56 83 74 57 63 57 52 69 89 61 88 76 72 90 65 79 55 74 54 71 59 128 71 57 71 69 64 61 76 93 81 81 39 81 90 57 53 82 84 69 62 74 51 90 87 65 59 103 53 82 74 55 91 92 78 69 79 60 60 74 73 62 86 68 77 109 64 78 63 66 92 81 83 71 79 53 92 85 62 120 83 66 64 68 87 147 64 86 72 82 70 65 72 68 60 57 83 36 58 45 87 75 86 98 62 64 59 135 112 70 51 117 65 43 42 105 60 74 60 99 58 115 44 109 76 74 88 68 62 82 33 61 56 63 65 87 82 72 84 60 83 116 51 57 119 63 107 77 54 78 66 79 64 59 96 82 74 87 83 87 64 71 53 57 93 71 68 62 81 77 105 69 69 87 56 63 119 63 61 88 64 55 78 70 87 58 58 70 59 88 69 77 65 119 74 156 65 79 90 64 74 57 77 74 87 65 68 72 141 54 61 66 81 72 77 67 76 58 92 60 79 70 140 75 93 59 91 54 78 56 75 57 97 70 51 83 63 91 69 48 115 59 49 78 61 61 81 83 70 64 64 56 60 58 56 61 67 91 63 69 61 80 86 60 68 65 78 90 67 66 63 66 88 78 83 86 71 64 90 93 86 159 58 69 55 68 104 82 78 84 74 78 92 60 80 64 72 70 80 77 69 61 67 57 79 74 69 91 61 70 77 64 91 75 74 68 46 78 83 58 73 91 86 73 77 80 133 101 77 61 67 94 69 74 65 60 79 85 75 64 41 83 74 111 61 98 64 72 82 65 86 80 67 105 73 77 108 71 48 101 71 55 62 98 86 92 67 57 54 116 61 47 73 72 57 76 78 78 85 116 72 81 65 69 75 65 94 61 71 55 72 56 69 74 73 67 54 89 98 79 70 57 60 113 68 81 58 66 55 58 56 65 53 64 89 99 74 68 99 80 75 50 66 63 113 70 83 91 101 55 78 70 53 45 128 91 48 87 74 89 94 55 69 77 67 53 63 76 50 84 67 90 71 73 51 87 76 69 66 59 50 66 60 76 60 65 72 75 83 58 116 70 107 79 42 80 72 61 71 70 65 85 74 114 61 60 84 50 79 57 62 72 73 74 71 76 102 92 101 72 54 53 63 54 53 56 54 63 83 70 70 67 45 72 103 80 67 63 88 66 111 67 96 44 90 64 78 77 90 73 65 57 67 66 58 65 50 100 69 107 88 112 135 65 51 71 67 87 73 84 66 87 105 68 64 85 63 64 61 51 73 70 93 86 68 80 110 67 103 93 71 113 62 132 83 52 86 89 81 59 66 68 62 84 77 67 103 87 69 87 70 74 67 85 56 57 99 71 85 65 51 87 54 93 53 62 153 63 64 74 93 75 74 70 76 75 65 76 52 72 70 71 53 81 76 85 64 72 113 91 60 71 110 69 69 70 86 71 70 58 79 71 67 66 79 62 58 60 58 112 65 79 71 89 89 87 92 57 51 71 68 67 75 49 82 59 86 83 73 49 106 68 112 73 70 61 74 85 85 69 67 78 78 65 49 93 83 80 75 71 74 63 99 69 67 60 65 68 57 71 79 54 57 80 93 61 60 60 100 78 57 64 88 74 61 116 93 98 116 146 66 65 100 55 60 67 70 82 62 87 51 73 53 92 69 90 69 55 64 86 91 105 83 74 85 79 97 80 89 71 86 69 68 76 183 70 101 84 90 68 46 110 56 64 71 47 65 97 66 62 123 66 75 76 72 75 110 64 70 55 80 99 84 79 97 55 34 76 71 63 81 69 57 78 80 110 58 91 62 67 67 115 67 71 73 74 51 65 76 75 81 79 65 58 137 134 74 72 84 125 59 133 62 71 128 51 57 78 84 62 91 66 58 58 70 87 62 67 66 61 61 60 74 82 37 69 57 83 64 63 63 75 111 53 106 59 80 92 77 84 80 74 72 62 109 69 62 59 71 61 61 63 71 60 71 77 70 126 64 123 104 63 82 79 88 95 54 85 64 53 53 58 60 85 37 79 90 61 74 82 86 93 52 109 53 67 84 69 67 106 69 58 66 91 84 81 82 51 76 55 71 60 42 72 109 96 75 42 83 54 84 114 87 89 122 98 83 51 58 58 64 128 97 38 117 70 66 78 92 69 70 101 70 87 95 52 104 55 51 55 62 63 65 74 81 59 90 68 56 55 84 57 92 89 71 98 67 76 53 76 84 85 55 75 102 50 72 87 76 81 134 78 63 60 86 65 72 66 76 114 70 61 84 82 76 89 63 47 92 83 76 107 80 72 63 51 83 64 89 78 65 65 70 60 113 45 91 70 65 51 67 59 59 48 65 81 107 60 84 67 99 63 60 54 63 57 100 64 67 97 81 63 55 54 48 123 53 106 68 89 69 74 79 101 76 88 91 59 80 64 79 82 48 68 90 82 55 92 89 50 62 64 67 68 55 80 53 79 107 64 66 69 73 75 75 111 68 97 66 123 81 75 94 106 61 49 71 53 68 71 78 53 60 59 78 94 59 67 60 62 79 82 65 54 45 73 64 103 122 102 54 68 87 134 58 52 67 64 74 77 85 65 63 60 65 69 57 64 54 60 69 71 60 79 78 71 86 66 82 73 101 71 58 74 56 100 78 70 78 75 54 75 81 93 132 75 72 87 90 84 56 74 98 52 71 68 74 108 73 86 54 89 71 95 99 80 93 83 69 76 56 50 133 71 53 79 58 68 79 95 62 60 68 64 89 79 68 70 54 66 53 89 99 104 105 88 55 68 49 65 144 144 102 52 78 72 69 63 75 73 78 58 66 59 90 77 90 103 68 91 74 54 74 65 76 70 66 60 69 87 63 47 86 64 109 69 82 46 64 99 54 66 99 86 68 98 89 81 97 83 69 56 77 75 67 60 95 82 71 82 48 91 59 69 97 64 53 64 55 113 60 56 64 80 101 86 66 62 68 73 60 72 179 80 72 52 75 119 62 60 49 71 70 66 71 76 59 70 68 76 153 63 85 74 58 56 105 92 80 61 90 85 55 93 53 86 74 68 53 84 86 78 68 72 116 60 72 79 61 63 77 67 126 73 50 68 93 105 65 55 84 72 57 44 63 78 68 116 79 75 62 60 95 56 76 85 69 84 87 68 59 100 69 79 52 60 69 69 89 66 78 105 56 80 66 117 40 69 104 71 58 70 84 93 58 104 109 84 60 48 53 99 75 71 69 67 62 73 82 62 96 78 77 79 79 57 96 84 41 80 91 80 83 60 49 103 63 91 116 109 71 66 41 64 84 60 66 74 69 75 59 128 97 82 83 51 108 122 95 59 119 76 111 61 82 90 91 62 65 94 56 74 65 52 65 118 80 82 51 60 80 66 70 65 82 101 69 63 61 61 81 63 74 61 75 56 50 63 106 69 66 80 60 63 63 96 56 86 83 54 88 86 63 80 89 84 71 71 72 106 105 56 68 68 63 67 77 72 60 122 94 106 74 73 79 66 79 65 96 56 64 64 81 79 88 81 58 143 96 75 60 93 96 82 54 79 65 95 73 64 68 73 72 53 74 64 63 69 78 47 80 71 83 63 55 86 66 55 72 96 62 67 65 107 55 74 89 75 67 88 95 85 71 92 85 69 86 70 45 80 74 93 175 61 65 68 69 60 61 169 77 67 52 64 83 68 74 90 93 92 71 64 71 66 61 69 77 53 73 105 128 70 76 76 84 137 84 85 60 86 128 64 64 126 61 107 63 71 64 76 89 73 90 84 60 99 89 73 58 66 61 93 71 78 85 93 72 56 78 81 75 69 71 69 98 103 52 67 46 53 58 72 70 83 63 83 107 68 72 119 41 83 70 52 64 74 60 81 70 56 100 69 58 63 75 103 90 79 92 62 68 66 100 77 53 67 63 58 55 66 79 63 56 74 67 110 62 72 74 57 61 59 82 80 63 90 104 82 70 58 68 56 60 74 117 64 81 83 64 58 75 86 76 72 60 80 89 70 72 81 66 97 96 89 87 54 75 73 57 61 64 69 86 69 71 65 67 105 74 92 84 110 97 101 65 66 51 70 119 92 65 50 79 63 69 50 114 87 52 140 51 109 73 85 74 66 53 92 62 76 68 64 137 73 77 77 109 61 62 49 60 76 56 86 140 85 66 86 54 65 86 99 62 97 81 66 72 69 70 100 43 90 116 76 73 75 78 80 104 67 82 59 70 54 64 87 81 56 87 70 66 73 72 69 67 59 61 64 77 99 60 60 98 97 81 84 75 55 60 90 66 62 94 65 92 72 54 72 73 67 55 51 73 84 60 80 72 71 88 87 78 89 82 56 84 73 59 59 61 94 65 64 53 86 80 82 70 112 82 74 69 92 60 59 66 77 123 72 69 102 71 142 91 90 71 109 97 60 77 105 59 92 78 57 84 69 89 57 76 88 66 81 115 90 68 100 52 105 81 77 94 66 79 67 68 69 83 92 57 118 118 85 59 79 65 64 77 126 115 59 120 76 118 62 69 71 72 82 84 65 109 73 86 83 108 87 131 110 69 66 84 63 56 76 77 65 76 135 59 109 70 87 94 59 80 76 64 67 73 48 73 58 60 87 63 68 69 49 77 63 62 54 60 82 80 114 67 61 73 66 62 68 79 71 78 47 64 70 65 85 120 70 67 71 73 74 68 63 109 71 98 70 76 72 87 66 80 69 72 84 53 69 76 75 82 55 55 107 54 60 93 93 128 72 76 74 66 52 79 66 73 132 55 63 47 59 83 73 66 103 97 65 97 73 56 81 99 48 68 57 72 76 64 81 86 95 49 130 76 56 79 54 71 77 62 63 62 80 61 86 67 80 65 65 65 79 62 58 69 79 95 80 121 61 86 52 72 60 71 65 87 79 52 74 139 73 75 73 94 72 77 83 91 50 104 66 68 60 62 71 62 73 74 94 76 67 56 85 52 82 99 55 102 71 64 103 74 84 58 59 71 103 63 79 83 154 47 85 59 72 112 68 57 104 100 71 62 83 57 69 71 62 71 71 103 78 69 77 86 124 71 52 82 71 64 101 64 61 90 93 73 72 60 65 129 76 49 76 89 89 79 81 78 93 97 66 94 60 66 78 98 150 107 77 40 80 99 115 63 61 58 60 51 58 53 135 46 58 50 60 72 63 72 63 101 61 55 58 56 97 56 63 63 63 71 58 60 87 97 53 65 56 50 58 52 63 63 52 47 52 103 63 67 63 51 53 85 95 63 63 82 70 66 67 75 58 76 96 90 105 101 55 94 67 71 66 111 73 64 71 66 64 73 70 77 70 72 65 56 89 69 61 43 43 80 70 60 87 72 73 47 81 73 82 74 59 84 48 84 69 77 75 118 67 77 64 77 72 52 67 62 60 82 59 66 56 61 56 83 78 71 97 76 54 80 81 79 74 110 104 83 78 94 97 67 75 72 93 53 102 99 67 66 63 72 70 60 81 117 71 59 60 96 49 63 62 111 60 63 93 89 69 70 87 65 70 119 68 84 69 54 73 57 51 70 75 79 82 59 52 73 56 64 98 75 126 51 81 71 53 65 53 66 86 66 74 56 57 74 100 76 95 62 63 63 83 82 74 77 71 83 70 54 80 60 79 75 67 63 57 78 109 78 61 60 65 63 100 69 85 83 98 78 101 97 87 59 79 66 59 64 70 67 81 57 58 57 123 58 111 83 75 73 78 61 51 51 56 59 60 60 95 68 76 55 112 74 57 59 87 81 94 70 70 72 94 66 93 63 69 71 77 85 84 101 58 88 81 184 67 68 61 74 85 94 66 79 122 71 50 73 58 66 89 81 63 59 75 59 85 59 74 84 60 85 73 72 69 81 68 66 67 66 73 107 60 70 77 75 84 72 96 70 100 48 93 76 62 149 58 57 48 70 59 60 113 71 65 117 65 69 78 98 60 96 78 62 53 97 69 68 67 75 56 69 107 114 57 89 57 116 73 63 117 84 62 91 101 65 86 81 72 58 63 84 70 55 80 52 71 47 53 72 99 62 59 60 63 77 80 52 62 78 70 71 74 108 85 75 74 92 55 52 117 73 74 82 59 51 77 89 61 53 56 71 73 58 73 70 80 57 82 65 74 110 92 75 62 70 69 90 90 74 72 113 66 151 52 61 121 104 89 77 101 61 58 76 70 50 68 65 104 53 80 85 65 71 59 78 62 86 72 96 78 69 52 53 79 75 94 57 83 81 61 93 69 70 78 64 83 78 64 85 83 80 57 50 71 58 52 56 105 84 104 107 61 57 78 74 66 104 101 76 73 57 72 60 79 68 44 74 58 70 75 61 68 60 75 141 65 75 84 77 76 71 59 85 69 96 85 80 82 63 85 55 55 73 79 79 88 80 50 64 56 65 72 77 52 58 61 95 118 75 71 90 75 46 35 84 44 56 57 47 61 59 105 55 63 70 56 59 80 77 84 83 51 73 74 82 103 66 91 112 72 74 95 89 146 87 103 123 71 51 77 60 115 68 79 100 68 101 80 84 79 63 138 68 69 57 69 78 104 83 74 72 59 72 90 65 93 68 135 60 64 83 92 54 78 97 79 66 78 63 92 111 72 61 75 81 100 94 102 67 68 71 82 65 94 111 92 90 71 57 72 68 64 77 77 47 74 58 77 95 70 72 52 140 89 84 69 75 82 76 76 114 106 78 59 57 66 59 87 71 128 103 65 98 98 71 52 64 65 83 79 87 70 63 138 59 90 74 72 62 97 61 96 87 75 96 63 66 73 102 60 63 88 52 71 67 53 89 75 55 48 80 103 83 105 73 71 127 60 77 102 74 93 53 103 80 116 53 64 67 69 59 45 98 69 70 53 51 107 62 126 64 63 69 52 96 110 87 60 74 61 62 65 90 60 75 83 62 73 53 155 63 85 72 122 83 61 69 56 56 64 107 69 123 41 64 50 56 89 44 65 86 74 78 65 69 70 66 77 60 84 72 80 76 101 59 105 68 64 169 94 53 50 91 52 49 91 66 51 106 77 84 68 79 71 80 64 58 78 71 143 63 64 67 79 77 86 70 73 91 85 56 111 57 62 81 54 54 62 75 73 79 72 76 76 109 71 79 77 83 69 60 100 70 67 53 82 66 113 73 68 84 83 75 62 68 68 68 93 75 79 71 52 97 85 59 67 63 67 136 66 56 116 79 64 66 54 89 65 90 56 76 66 72 86 55 72 81 63 74 66 77 61 82 152 90 104 85 60 65 70 84 71 74 130 72 59 60 102 109 44 43 69 53 113 85 89 55 75 92 68 98 83 66 90 82 69 71 61 59 62 42 76 102 57 60 72 69 61 54 75 78 83 90 61 62 80 51 90 90 66 67 59 55 53 125 105 125 71 109 66 59 52 99 74 60 48 102 84 92 49 69 67 69 55 71 84 99 57 58 141 77 79 74 74 92 81 64 87 97 66 59 63 83 70 68 53 74 64 53 52 108 79 90 117 91 98 55 97 125 144 70 67 59 38 73 81 68 76 66 123 70 58 69 99 96 79 73 58 64 96 73 79 70 77 76 112 92 55 67 74 58 67 75 110 75 82 61 177 63 102 92 82 88 123 116 87 101 58 92 82 89 67 49 69 77 68 64 123 77 61 92 67 79 55 60 61 52 57 98 55 147 69 67 75 91 57 129 73 80 86 66 61 74 69 87 75 115 55 66 54 120 57 73 69 74 76 83 114 110 103 56 77 93 84 65 107 72 85 68 83 59 76 83 99 77 73 114 64 76 104 91 78 76 109 106 53 63 64 79 65 60 53 59 92 71 88 66 104 61 94 106 93 69 77 71 62 83 78 78 94 88 79 106 78 74 104 84 108 77 85 97 111 116 78 82 76 60 61 51 109 76 89 57 56 74 83 174 46 71 50 105 52 70 86 58 66 103 115 85 47 76 94 69 76 63 139 87 70 52 60 56 89 69 55 108 82 71 82 97 69 93 92 63 81 66 117 61 71 80 86 48 105 94 63 44 85 57 90 50 39 82 82 93 73 70 52 62 96 77 103 78 54 89 50 72 80 74 88 57 64 81 83 76 53 71 62 75 74 68 50 93 93 66 71 110 63 80 44 65 131 64 89 50 79 72 65 61 57 69 66 89 76 60 60 81 60 71 60 63 75 76 72 86 86 57 67 89 65 78 54 98 67 55 66 72 65 63 62 74 82 98 60 106 60 117 108 85 69 79 56 53 66 65 70 70 65 90 71 104 56 81 64 58 81 58 58 85 70 57 112 48 63 59 64 62 56 56 83 85 73 71 75 65 60 50 80 60 65 80 72 119 74 83 108 79 82 84 65 86 89 55 78 65 74 83 87 86 59 81 75 50 71 81 80 94 64 68 80 47 93 59 52 82 67 76 67 87 92 71 73 71 68 74 74 64 76 84 78 77 88 64 80 84 50 92 98 154 73 60 56 101 69 93 72 123 69 98 60 101 173 65 73 75 76 70 49 108 88 79 39 90 47 73 62 57 72 73 96 108 76 98 69 76 86 66 68 68 75 76 63 74 86 73 63 48 71 72 90 67 56 59 82 83 96 63 88 71 79 97 58 53 80 56 90 65 108 101 64 50 98 95 81 101 73 69 70 88 83 63 92 107 44 62 61 71 69 65 88 62 63 92 93 92 88 74 65 73 83 57 84 63 82 60 112 95 85 63 71 58 64 85 111 64 100 59 82 74 65 138 103 83 69 64 87 82 76 53 57 142 85 67 72 80 60 74 92 44 70 54 64 69 68 57 70 57 68 55 92 53 67 86 94 77 77 79 79 88 63 64 81 93 65 56 97 95 104 70 89 85 102 67 117 73 65 52 112 72 61 72 91 60 90 59 67 96 54 64 116 67 60 115 89 80 63 73 58 90 73 63 62 57 71 89 57 101 76 99 86 44 86 65 77 61 69 64 83 83 58 100 68 61 82 66 63 51 82 79 73 69 89 77 58 41 71 78 84 61 47 75 81 73 73 78 70 69 63 55 54 94 57 61 61 73 73 64 82 110 73 71 81 86 85 109 76 92 91 64 78 117 109 70 66 90 65 80 95 85 65 71 89 62 85 104 66 100 82 62 109 88 90 67 72 90 55 112 74 61 57 101 78 80 69 98 90 66 69 68 84 76 61 45 81 77 88 133 68 58 61 82 72 66 45 81 117 65 83 69 88 84 79 69 65 90 117 88 61 72 60 77 63 101 117 98 66 101 57 63 58 84 66 82 72 65 76 49 104 59 74 90 70 67 82 58 145 68 66 59 70 75 106 80 110 77 82 75 75 86 180 52 90 74 112 138 52 83 61 128 65 70 177 82 73 81 88 61 80 90 100 71 75 90 82 78 70 102 94 77 83 69 74 62 55 51 104 72 116 52 87 75 66 103 72 61 68 71 83 72 93 100 71 80 55 97 74 60 62 88 61 112 58 64 83 78 82 59 112 72 55 64 102 98 68 67 53 65 87 70 71 84 76 79 79 60 95 93 70 96 110 86 67 103 112 94 90 69 72 71 71 88 54 73 107 78 66 61 71 57 75 80 52 87 64 75 85 84 70 74 83 63 51 68 58 91 70 67 69 78 76 100 134 90 89 35 100 78 75 63 96 97 73 51 67 70 68 79 50 78 82 71 68 62 67 90 63 53 114 51 116 60 75 69 105 104 110 71 62 92 75 100 68 56 91 85 60 113 73 65 75 84 66 70 62 73 75 77 72 59 56 66 102 65 72 99 54 72 70 75 86 87 61 69 57 72 61 65 62 43 50 90 62 57 63 60 58 67 60 46 114 50 74 57 63 99 66 79 66 76 52 59 70 58 52 55 117 80 59 69 82 72 64 89 89 101 120 74 96 68 86 84 108 92 86 128 94 169 141 84 71 77 63 58 57 86 63 87 86 53 60 58 74 74 70 86 55 79 108 70 54 100 63 119 100 77 65 60 85 65 50 74 112 55 71 60 81 107 126 97 80 57 96 98 73 93 51 89 79 78 68 95 63 78 132 57 60 82 85 66 27 127 60 93 83 67 119 70 61 100 69 80 60 59 75 61 64 66 68 83 61 59 84 121 78 78 79 97 63 59 76 78 53 75 59 74 70 73 55 61 58 80 83 64 65 62 58 88 115 74 83 66 50 66 68 85 78 70 54 96 90 70 61 86 44 118 55 108 57 92 63 93 75 71 59 68 40 69 116 75 63 78 77 51 66 62 58 75 91 108 68 76 73 67 55 140 113 72 83 62 78 88 62 67 85 82 56 45 67 83 88 68 85 111 72 94 97 87 82 78 65 60 114 91 85 80 80 64 59 54 78 155 77 83 53 64 56 39 58 120 92 83 87 64 92 66 67 80 98 96 72 64 86 64 69 65 70 64 116 59 78 88 52 96 87 63 84 108 98 63 58 72 55 100 125 84 75 89 57 74 87 137 53 53 85 88 60 62 88 176 64 71 61 58 63 74 72 85 103 106 90 140 69 129 74 67 79 54 60 74 89 96 64 63 48 62 91 82 93 108 116 86 55 45 59 50 134 96 68 75 126 97 74 71 52 82 66 95 87 74 76 91 65 68 68 90 88 59 78 74 57 84 56 58 91 101 54 59 88 95 130 114 68 81 108 70 88 60 67 106 83 78 76 112 135 58 113 61 91 90 95 119 70 79 60 70 71 59 155 71 79 80 41 80 61 66 66 47 64 100 93 85 64 86 76 94 83 89 66 68 108 87 69 91 57 58 55 86 74 58 56 89 47 58 61 59 52 90 65 95 74 74 112 63 113 69 56 68 59 62 71 64 47 74 94 74 67 64 73 76 104 61 110 72 73 75 89 67 65 53 55 106 83 79 70 75 45 85 58 93 75 85 105 55 54 50 58 56 64 77 74 104 65 84 108 73 158 65 93 88 87 56 55 76 90 51 82 76 96 106 63 95 80 68 128 85 59 110 70 159 80 60 100 74 64 75 78 60 76 55 95 101 54 79 84 66 91 90 91 61 68 66 76 63 75 101 54 66 85 87 70 78 56 69 77 87 68 80 170 139 84 70 62 64 85 67 69 67 54 48 76 95 61 135 83 72 72 99 42 76 97 71 73 62 69 87 52 60 93 91 65 71 63 55 82 79 75 74 62 83 50 68 78 68 110 126 99 71 55 59 140 53 76 65 66 77 58 77 134 103 106 105 75 77 56 64 74 67 70 75 61 81 53 65 98 86 82 63 92 96 74 89 52 98 72 92 58 84 79 64 76 51 60 118 72 77 95 66 71 59 60 73 67 74 76 61 91 81 106 78 65 86 58 66 130 59 70 70 85 61 88 55 57 91 107 77 70 60 57 54 53 117 82 77 71 80 88 66 78 60 63 72 68 51 70 103 86 49 68 58 77 66 106 79 74 71 79 96 125 65 44 68 59 68 89 45 47 62 70 86 64 101 57 78 46 89 114 56 68 94 72 69 56 60 58 81 96 87 127 98 78 95 67 77 64 56 84 51 71 83 71 75 72 63 75 82 101 55 68 78 60 61 86 78 51 46 83 74 59 87 57 57 74 118 54 116 61 74 80 58 68 78 81 145 50 60 62 72 67 113 97 59 53 97 108 61 58 98 92 63 77 87 72 83 148 97 99 88 76 73 89 123 91 84 75 51 74 69 114 117 99 78 60 133 55 131 60 87 64 96 70 142 53 59 120 58 72 68 46 42 57 103 58 85 97 98 55 66 76 60 46 76 53 167 74 80 50 67 72 84 107 64 63 74 81 141 64 67 76 81 65 74 147 75 80 64 84 111 66 77 80 82 73 105 64 55 83 99 86 83 72 78 59 101 65 98 78 79 97 69 89 68 107 74 60 108 59 93 106 74 77 57 70 50 57 87 99 89 59 106 82 61 78 67 81 118 55 57 84 82 69 64 85 109 74 87 52 74 88 82 66 58 53 118 83 68 61 65 75 53 70 97 55 77 53 122 121 75 88 62 66 70 62 76 91 64 60 85 88 67 101 70 67 85 58 69 105 110 108 61 102 77 123 70 62 63 60 93 54 62 59 118 81 117 34 59 56 53 63 52 59 109 75 76 79 91 81 59 92 66 75 74 56 87 75 71 66 94 73 63 87 66 63 60 91 46 49 96 92 58 55 143 95 78 70 76 64 80 102 77 67 55 107 57 137 58 71 73 119 70 77 54 57 83 117 90 58 48 94 58 75 63 169 55 55 56 82 89 68 59 66 81 64 80 68 57 72 51 83 71 47 55 73 73 58 93 82 93 93 87 75 76 52 64 62 51 96 40 50 67 81 67 57 80 64 96 79 92 79 103 81 79 57 59 80 59 77 64 99 46 146 106 56 83 62 74 72 70 73 169 117 64 55 178 116 83 57 68 72 117 68 60 65 104 73 67 145 78 88 58 59 83 74 65 61 55 63 70 57 64 103 54 73 56 75 43 55 67 102 76 67 69 82 47 50 82 119 65 63 82 57 105 53 99 122 55 79 66 120 65 51 109 79 75 68 53 54 108 100 67 59 96 106 61 65 51 77 72 82 63 66 187 79 82 68 51 84 70 50 63 68 59 59 113 92 60 71 77 91 58 63 71 55 61 71 54 86 53 58 61 66 79 86 99 51 90 101 64 59 66 70 92 50 103 53 66 54 66 56 81 65 61 103 58 130 58 56 69 92 109 52 51 60 99 82 65 65 52 68 89 60 60 185 53 62 99 91 56 57 59 88 101 87 90 98 84 106 74 56 98 62 50 42 70 50 73 76 100 53 75 71 130 57 131 71 74 48 55 66 137 59 64 66 52 98 59 54 56 90 63 54 90 114 85 65 61 71 60 62 107 55 53 53 87 51 82 98 67 70 92 62 104 58 57 55 92 55 70 63 93 76 89 65 66 55 62 43 69 71 75 68 86 63 105 86 111 53 57 80 67 64 60 62 118 103 72 89 74 76 70 81 59 65 121 129 67 100 86 77 70 53 83 124 82 66 71 54 87 93 51 59 59 58 58 119 118 78 70 55 74 129 53 102 61 52 92 80 122 56 68 58 54 56 110 61 72 57 141 48 59 41 55 113 56 94 34 70 79 58 83 54 61 81 73 74 125 50 96 49 36 65 77 58 82 68 84 62 102 50 115 112 56 76 51 64 71 116 55 67 66 86 81 60 50 48 86 55 63 75 89 98 63 74 63 53 90 75 69 67 66 63 45 34 59 85 73 71 97 64 77 74 58 76 63 71 69 99 40 52 76 43 100 40 69 65 141 62 85 125 81 58 137 58 69 56 121 157 71 40 65 66 94 97 78 69 84 90 66 75 101 65 66 66 129 69 89 87 60 74 53 97 62 85 107 57 73 73 49 104 72 93 68 95 67 77 90 76 92 81 80 60 82 81 87 98 109 99 137 84 70 148 60 98 142 88 56 66 69 65 78 56 105 67 140 66 142 83 86 62 59 100 137 64 49 71 71 59 73 69 68 86 87 56 85 96 120 57 80 75 51 62 63 87 100 70 74 64 68 121 52 71 92 51 73 85 67 74 60 62 55 82 115 84 44 90 58 91 97 97 88 100 57 80 83 105 87 90 66 86 86 90 113 84 113 61 106 88 101 118 75 114 72 78 65 83 41 96 82 65 134 54 62 67 73 123 91 97 56 66 94 80 76 74 58 124 120 93 82 107 95 76 108 66 68 77 76 92 79 88 88 58 90 55 70 66 61 81 57 87 84 74 102 68 80 139 82 101 73 68 104 59 92 43 92 70 61 60 114 69 92 117 71 112 63 89 183 66 68 53 114 93 65 71 99 107 88 125 75 60 73 48 71 94 68 50 77 77 56 92 82 86 128 74 86 77 71 69 32 30 45 80 71 90 94 70 61 80 78 113 62 80 84 61 61 64 75 60 78 57 113 85 74 82 82 74 101 106 86 67 84 49 104 76 60 115 34 60 64 75 70 78 84 66 84 126 96 114 102 117 108 71 91 128 68 54 62 109 65 66 82 160 103 78 82 73 116 89 72 85 106 73 75 83 106 80 74 96 57 57 87 92 105 58 60 86 80 120 73 147 98 107 82 87 71 73 75 93 62 108 145 79 63 74 81 68 59 59 85 52 170 90 94 80 81 121 76 109 66 59 128 95 104 104 69 45 69 114 71 76 65 82 108 101 58 70 85 64 65 94 85 55 92 97 66 59 70 62 67 147 125 68 107 91 109 94 118 65 99 69 66 61 73 71 67 64 77 69 50 104 89 88 57 70 97 75 72 44 59 96 101 84 58 57 110 97 111 95 81 112 60 90 52 67 69 44 68 76 76 107 75 136 69 60 65 84 63 88 75 77 159 61 106 72 90 83 67 66 82 85 76 49 59 66 78 63 67 59 56 77 88 42 69 60 107 77 56 98 59 101 75 110 81 94 83 91 174 91 72 126 55 62 79 75 72 75 76 59 112 55 145 66 54 87 96 67 53 62 50 57 70 112 43 114 118 58 73 59 65 98 71 71 78 83 82 75 74 61 78 94 58 62 80 103 75 48 91 75 62 90 58 119 71 84 174 76 108 66 83 72 43 75 83 125 72 85 61 70 68 83 72 45 51 125 102 128 87 78 86 118 40 93 66 89 99 157 37 71 96 70 86 66 104 80 179 72 56 55 69 149 104 49 40 68 84 39 85 59 77 91 66 83 77 77 57 101 74 80 62 126 81 93 46 110 81 64 71 73 139 53 103 67 59 67 121 90 133 84 55 91 84 56 119 73 98 128 55 90 75 134 90 125 119 70 48 62 121 38 50 60 74 85 60 74 97 68 66 71 75 139 60 95 63 109 69 77 60 51 56 67 82 60 84 93 132 60 74 101 75 129 63 64 74 58 77 61 81 70 93 86 56 50 80 132 69 137 97 86 74 121 58 71 83 178 98 117 155 82 102 58 80 96 67 157 128 101 69 86 81 56 125 82 54 81 61 77 71 68 87 110 53 57 71 113 46 78 94 66 178 65 106 75 64 52 55 86 97 70 67 100 69 58 66 104 63 95 98 100 102 104 78 91 71 78 66 62 66 78 77 81 93 88 52 63 85 92 156 44 107 62 47 62 100 70 88 66 101 124 81 69 154 83 75 114 92 128 83 54 65 36 134 81 70 83 53 92 115 106 73 115 109 78 62 89 55 131 167 92 95 114 118 60 110 161 64 71 80 129 61 59 126 85 55 113 47 92 102 63 46 122 62 55 101 89 131 64 66 71 62 99 83 128 69 83 168 116 72 109 60 135 66 61 99 132 92 58 87 103 72 129 106 82 82 72 64 94 115 82 64 82 79 83 54 80 99 65 56 83 175 69 87 61 76 79 78 132 70 75 75 67 59 62 99 107 164 60 85 85 62 56 63 100 69 66 59 88 62 50 72 92 61 55 82 85 121 58 91 70 130 69 64 99 68 115 86 74 78 132 123 56 121 75 98 114 87 65 129 88 76 133 141 101 80 97 83 72 59 79 84 72 71 77 68 133 68 72 105 62 50 108 173 64 78 89 79 114 54 110 63 75 55 153 78 144 70 66 59 172 61 108 108 129 79 75 89 121 120 58 103 94 95 80 60 67 105 117 107 103 119 114 93 66 118 64 69 92 110 103 149 63 61 141 99 134 74 47 108 119 49 41 66 70 67 173 64 115 55 56 93 91 62 61 141 151 64 78 79 71 117 92 110 74 86 96 58 77 165 116 91 127 61 78 56 141 85 144 67 70 74 63 69 72 69 145 79 71 112 60 60 76 93 89 75 70 106 44 121 80 97 60 69 146 63 42 33 109 106 66 93 66 59 70 78 73 75 138 174 106 44 86 60 116 153 62 82 68 119 53 116 56 71 79 149 115 78 89 60 65 83 138 70 160 71 94 92 55 81 70 101 137 71 106 114 158 63 64 74 160 105 42 93 91 52 118 80 109 111 24 58 78 77 86 92 84 54 105 132 58 106 112 59 131 97 69 50 59 92 62 77 45 93 100 124 67 67 88 118 80 50 68 154 104 76 88 67 91 80 89 68 87 129 64 52 72 92 111 62 67 106 97 62 122 67 126 65 75 127 66 71 79 93 59 147 83 69 42 94 145 67 59 85 78 80 74 88 89 41 37 65 98 54 59 70 124 79 115 74 61 61 106 59 102 94 59 61 60 40 52 98 71 137 81 77 65 64 98 58 41 63 107 71 53 41 101 106 138 77 59 119 79 119 63 124 98 57 46 114 102 66 90 108 68 116 35 74 42 37 36 66 111 90 109 120 89 88 79 152 61 68 52 56 70 39 114 101 73 59 75 80 104 95 108 103 68 100 93 118 108 69 76 92 78 58 117 51 102 75 62 68 86 84 79 97 107 98 105 73 80 91 69 73 49 102 74 70 88 63 88 98 84 99 77 85 66 55 89 83 66 70 39 87 81 114 64 71 98 79 112 84 139 75 84 61 84 115 97 50 64 159 52 84 70 61 91 108 40 51 69 53 133 101 131 150 47 69 105 111 66 65 109 109 76 75 76 44 74 76 66 100 82 165 77 66 127 59 75 65 108 60 91 67 83 78 96 80 64 66 65 134 76 84 93 66 52 52 79 61 74 80 87 68 69 75 38 106 40 84 70 85 50 78 98 74 127 74 142 75 140 55 61 80 160 56 112 74 103 109 130 85 88 53 80 122 86 62 96 78 70 65 50 77 151 73 65 143 59 76 76 71 92 62 90 78 65 55 111 50 73 99 47 111 59 115 96 72 91 81 70 99 71 89 82 83 59 81 67 129 83 100 52 127 65 118 101 83 114 63 70 68 65 67 81 58 91 69 77 119 66 105 47 64 94 127 38 78 112 73 67 61 130 63 91 74 136 117 82 87 141 139 81 86 70 89 96 59 68 56 107 94 124 62 80 48 84 57 82 71 54 106 64 30 88 105 144 72 109 103 80 36 89 157 76 57 144 79 84 107 136 71 82 86 138 149 91 61 63 157 66 73 66 100 81 80 93 96 89 80 88 23 74 55 100 64 104 78 74 154 152 62 70 67 116 54 75 66 116 63 103 165 110 69 82 136 64 120 74 167 97 149 107 42 39 61 121 63 70 123 50 137 88 88 69 127 91 146 154 90 63 78 76 75 145 61 43 116 46 108 36 101 65 69 74 133 77 146 89 164 80 102 51 64 87 130 45 137 98 76 51 156 87 91 76 46 119 32 50 93 78 95 121 28 82 59 162 70 63 90 70 115 62 80 88 83 106 38 77 157 85 111 92 148 62 71 99 122 151 78 97 36 67 73 73 64 65 78 140 85 42 77 62 131 75 46 61 52 54 37 67 68 158 73 77 67 185 100 93 58 48 40 51 118 72 60 82 156 74 62 130 103 54 81 120 61 88 108 129 82 143 140 79 55 72 57 92 49 129 92 76 97 118 120 54 113 82 75 98 63 67 155 80 85 81 80 111 108 56 102 133 80 81 85 149 89