1 53 61 92 53 60 57 55 48 131 -32 -33 79 74 62  -36  42 12 59 36 63  59 53 49 50  47  47 68  84 72  79 63 35 50 52 53 48 80 64 5  68 42 69 55  26 55  43 47 65 52 116 78  79 56 88 50 50   53 19 70 53 42 46 47 66 51 -40 54 63  60 57 64 53 69 66 69 16  25 72 9 64 72 64 67 62   41 82 -4  76 61 86 63 7 75 22 -8 63  70   77 25 7 82  35 21 36 59  71 52 43 49 70  31 37 45 71 49 54 69 26   31  42 56 61 40 70   35  58  70 27 77 56 44 69 73 82 32 51 62  45    69 53 37  73 97 43 52  53 -4 1 44 37  28   57 7 71 34 55 81 28 19 19 43 10 63  42 32 24 47 40 55 52 52  35 19 43 32 33 -83   55 27 60  57 72  107 82 -8 61 76 90  56 44 -32 47 66 52  54 37  44 56 59 -46 50 39 23 30 7 64  47 49 63 32 76 60  66 54 81 49  42 31 29 55 73  27 78 71   82 -7 34 70 69 61 70 61 48 81 33 36 32  80   15 58 63 76 16 20 47 -1 67 34 32 -21 -1 61 84 46 63 17 61  67 66 52 63 54  41 64 67  56 66 62 72 21 51 -6 -23 60 66 263 -27  -17  32  41 48 70   35 46 27  38  -20 72 8 31  29  61  39 0 61 45  -12 53 72 -13 19 18 39 260 56    71 27 68 -90 57 9 1 40 54 23 59 60 67  45 63 23 72 57 66 -29 38    42  43 79 58  33  -60   44  -5 -36 0 44  88 68 67 48 39 81  51 78 82  2  41 53 41  25 -3 45 31 46 44 49 43 34 57 42 57  66 49 53 76 50 61  20 -33 41 56 50  68 65 25 55  38 71  35  51 58  67  72 27 63 2 53  66 38 52 34 65 47 50 46   -13   0 62 0 -12  73 38 84 72 45 36 46 41 52 58 44 53 46  82 36 56 73 76   69 53 46  53 38 37 77 -37 58 60 85 63 -29 71 47 60 53  47 84 52 58 52 53 47  36 0 50  46 70 68 40 49 70 39 40 60 258   34 71 65 42 59 27 23 59 88 64   48 65 28 77 51 58 -72  62 72  15 73 73 19  49 78 3  -12 14   61 48 34 58 61 46  48 46 51 56 52 71  67 64 59 70 48 31 77 72 57  83 56 42  59 36 68 66   56 17 51 47 70 42 57  74 69  74 18 62 62 -15 57 68 74 45 46  40 55 71 67 73  39 37 71 46 54 62   60 -87    71 78 -3 59 58  71 -39 73 39 88 64 64 31 53 52 39 46 32 36 68 41 72 76 75 65 45  68 55 2 52 10 59 6 44  63 53 -34 62  -3 50 57 30 30 75 52  30 84 43 49  22 23 100 29 52 46 25 56 49 96 7  73 -8 39 65 89 58 75 61 36 48 45 94 47     67 62 87 53 45 38 57 42 50  16 51 77 -88 60  49 69 -36 70 39  54 36 60  28 8  65 73 63 67  74 -38 57 -20 0 69 41 106 45 33  49 3 53 42  -35 91 21 45 62  35 67 20 71 45 44 47 60 49  78 15 51  48 69 51 73 25 75 0 61  36 49 17 3 38 50 54 68  48 -13 60 49 62   68 45  49 74 47 39 2 56 25 71 79 65 29 51 59 50 67 41 69 31 36 55 32 58 44 103 61 27 25 13 61 75  44  73 59  72 51 54 31 66  35 61 42 63 -8 62 4 72  80  52 35 60 25    24 16 50 53 53 47 43 64 66 28 -25 94 72 49 74 39 67 45 58 54 42 56 42 68 51 51  69 28  33 56 -15  64 56 57 70 67  73 82 75 57 55 77 6 35 40  54 67 85 3 77  72 67 21 60 -4 58 46 88 59 50 72 11 58 37 0  -19 70   49 65 34  41  79 -56  64 52  51 62 67 111 39  66 63 30 53 58      60 9   69  73 54 29 35 42 60 48 58 85 -26 51 17 76 66 53 23 40 38 42 -8 21  32   81 15 52 54 96 48 92 77  52 76 50 24 93 38  48 53 43 38 36 63  72 53  44 71 26 46 44 68 70 66 -33 67 96 61 29 62 47 36  46 46  68 43 64 67 76 52 43  -41 65 48 59 97 38 0 26 67 63 57 103 -16 43 58 68 76 74 37 62 68 75 52 25 30 30 74 37  47 66 64 53 77 60 19 77    45 61 62 88 72 75 56 71 55 65 78  49 70 -6 -14 37   82 76 64 84 64 54 46 78 58 49 42 51 58 83   33  63 57 -12 60 32 69 73 40 35 87 67 50 62  16  65 52 27 60 63 60  81 54 78     28 32 36 65 83 -3 13 35 53 42    50 38  72  47 44  59 74 -30 46 47 2  62 -24  44  68 47 33 59 48 54  28  60 66 53 42 35 54 57 35 82 33 -7 57   33 68 62 50 39 16 -30 18 41 73   66 83 76 72  76 21 72 -53 63 13 19 50 42  47  19 42 55 53 55 26 37 72  61 64 62 73 33 55 75 66  27 10 33 74  67 80  67  11 24 66 72 67 44 42 97  73 -17 52 77 43 38 60  41 66  82 -1 36 61  71  27 34 63 -28 51 -13 54  40 64  57 45 75 31 57 66 37 43  84 70  70 81 46  22   41 43 31 70 49 -82 79 8 26 24 -43 30 35 49 61  49 48 6 68 59 63 56  31 55 34 54 58   82 33 40 25 56 86 69 52   42 65 69 73 67 66 66    59 7 54 57  66 36 77 41 58 -5 101 -44  90 75  26 60 10 -40 45 -5  43 63 54 -13  61 57 61 53 -3  28 49  61 25 63 65 58 34   -48 80 29  33 43 73 57  58 54 79     42 51  0 53 32 61  60 36 50 73 14 55 51 77  54 31 107 22  13  61 43 73 55 65 38    67 46 20 38  -48 56 60  55 59 77 45 44 43 49   -49   83  24  -3 34 74   54 66 29 47 54 54 83 36 54 26 72 71 49 -28 83 40 35 42 15 76 59  38 72   -40 17 50 52 40 32 47 63  48 57 9 -4  63 21 60 24 66  58 73 76 46 53  31 12 70 54 70 59 66 38 35 2 66 55 82 22   49 71 72 53 60 53 59 -24 5  57 51 52 45 67 20 220 -52 49 64  78 14 -27   21 63 50 5 63   44  61 79 74 68 71 18 31 69 55 66 50 63 6 67 69 35 67 58 80  3 23 70 44 56 56 80 35  18 51 55  63 62  58 54 50 -8 63 49 82 52 -17  75 46 46 39 79 59 14 50  41 70 61 55 59 -78 83 37 5 77 42 -2 62 80 77 4  56 62 40 84 47 66 49 49 26 59 46 58 50 244 56 62 69 72 40 59  45 47 31 -8 54 85 42 49 34 65    35  25 0 56 58 44 52 82 72 37 24 51  30 62 10 6  61 80 90  61  55 75 58 57 -1 65 52 83 39 -46 27 16 60 75     54 74 64  48 14 64 75  75 53  59 13 54 53  38 65 64 47 11 62 37 61 49 63 0 20 59 37 58  83 48 -27 65 30 58 65 63 54 48 69 58 70 67 69 72 49 48 68 40 62  22 71 14 71 54  57 61 66 58 268 38  40 75  52 55 52   86 63  63 57  39 66 58 24  69 69 35 -33 59 61 25 36 52 42 -50 60 42 51 71 4 72 56  46 60 36 44 71 51 73 37  45 38 81 64 75 70 40  -3 0 69 69 41 9 82 66 110 53 23 27   21 50 84   -7 56 67 17  59 56  57 52 48  54 66 -9 59 32 27  79  67 66 64 59  31 44 47 64 92 43 67 20  78 69 63 58 12 5 38 63 96  0 75 24 65 36 45 32 -2 63 57 50 -10 56 58 43 48  30 63 56 40 35 65 55 13 58  91 60 58 20 19 65 37 31 59 -3 46 100  44 -11 71  76 58 75 70 81 47 60 80 55   55 67  28 257 47   7 61  90  49 67 59 67 61 -5 77 64 34 42 62 55 51 65 82 34 57 37 46  60 68 35 49 49   68 65 10 17 69 90 1  -86 56 270 24 43 22  40 80 41 37  40 59 46 78  -10 54 -7 64 14 61 65 55 94  63 58 -31 71 61 -19 41 47 13 12 45 25 79 31 36 60  59 67 61 59 -27 28 65 55 49  71 41 52 61 100 50 54 74  24 62 49 270 69 72 54 -19 51 63  81  33 61 50 36 37 61  60  15 31 81 56  68 44 79 50 43 36 77 76 71  70  51 36 -32 23 56 40  53  44 67 16  70 72 13 57  59 71  52 50 -73 25 71 74 60 42 18 44 68 20 34 68 37 63 45 58 40  75 52 86 66 67 54 60 18 51 45  67 68 76 62 73 64 65 64 41 43 45 52 31 92    43 62 42 68 70  77 47 66 49  44 19 55 80  48 53 34 71 75 40 64 60 73 27 63 60 42 77 -5 24 57 16 25 26 65 -16 30 0 51 67 65 74 82 72 64 49 65  62 85 65   51 78 82 48 47 113 38 55 33 56 66 62 65  53 23  -31 65 61 83   40 52 13 3  55 63 52 67 23 64 41  61 72 57 67 56 61 -5 47 60 72 49 24 77 39 27 8 40 37 69 -14 74 51 70   46 95  65 58 80 60 79  50 76  57 19 28 48 71 55 72 55  69 44 61 80 63  69 71 77 63 68 68 0 14 50 37 73 53 69 68 74 74 0 51 39 48 82 55 46 47 51 84 64 3 59 -6 -22 63 -55 -3 46 80 48 41 71 50  58 66 69 50 47 69 62 25 71  80 59  60 45 -24 257 67 34 37 28 38 17 58 58 61  44 9 58 50  62 55 48  46 59 57 64 48 63 68 64 96 58 -20 41 48 72 65   39 72 57 67 23  47 46  70  54  54 69 39 83 35 39 48   43 47 50 26 57 50   39 15 50 59 -2 12 48 53 72 65  60 45 82 48 57  10 43 81 59 40 76 11 79   43 76 68 69  48 54 39 57 33 72  54 79 -23 84 72 9  73 61 11 68 19 -1 41 79 77 90 40 35 -34 52 50 18 63 46 54 52    73   57 39 61 10 46  51 30 67   74 66  28 42 73 51  51 45 73  54 60 53 58 37 43 60 52 32 72 71 0 62 46 52 84 0 55 85 86 69 64 59 44 66 51 38 72 80 75 50 40 52 15 22   34 38 63 72 52 36 20 51  63 38 73 18 -7 24 64 43 67   64 -38 27   71 44 38 29 72  59 5 40 79 66 55 66 30 48 68 17 56 65 -43 29  64 78 51  52 45 20   69 66   91 70 65 62 78 30  53 76 -18 52 54 41 53 -31 33 22  48 40 51  43 64 52   242 -3 70 56  68 76 68 62 59 41  24 48 -55 41 50 71 5 81 18 29 31 60  47  9   69   17 64 82 32  72 54 -24 74 82 59 72 15   73 54 41 54 67 53 43 93   48 67 -23  63 52  -18  39 -34 49 -11 57 44 74 -55 43 87 40 34 83 56  38 48  9 57 96   55 75  77 47  73 -23 41 62 50 100 63 50 74 25 38 73 68 23 81  42 97 55 18 62 89 73 42 -14 34  -12  32 34 30 63 52  55 34 52 67 98 27 64 72 48 23 63 5 0 -38 -7 108 40  40  51 72  63   52 81 39 70 24 56 72 66 68 64 72  67 42 -41 60 68 58 57  16 46 -34 26 32 62 17 -7 36 33 31 80 -51 26 -43 46 -25 18 30  74  0 30 35 75 67 68 53 65 65 73 45  86  56 71 -45 55  49 30 42 -24 21 73 65  64 69 59  90 72 56 70 42 36 75 62 31 47 26 -9 45 53 71 37 16 25 54 32 66 40 59 31 -21  51  32 7 19 27 29 66 39 77 48 46  22 54 71  63 50 63  32 39  76 61 24 67 6  29 53 35 91 68 62 78 6 62 75 -82 -31 -3 60 77 72 78 48 65  49 30 66  27 69 39 61 70 9 69 67 67 -46 21   103 39 34  57 39 53 49 72 37 47   -34 82 54 59 84 65 37  17 40 7 74 59 75  72 46 44 42 30  43 62 30 59 32 70 79 42 39  65 48 40 74 62 47 44 43 63 78 67 75 34 68 52 76 61 52 73 17 59 -5  37 53 36 76 43 51 24   3 38 0  66 56 84 60 -36  112  52 72 18 26   45 82 73 27 63 70 25 72  60  -65  55 57  56 73  66 80  58 -20 86 19 74 64 70 61 63   76 70 6 -29 33 69 58  49 48  -12 68 54 75 63  52 59 57  11 23 56 55 66 41  49 86 57 22 56 67 49  -7 72 39    62  57 30  77  24 27  33 91 36 65  75 49  41 77 -15 39 -2 60 17  59 39 33 56 28 55 51 66 84 30 38  78 23 63 31 45  37 77 61  41 44 30 79 58 36  56   13 51 -12 58 78 54 58 79  63 62 73 44 77 23 47  57 41 58 80   69 92 64 37 110 54 69 79 7 27 62 47 72 51 79 65 68 64 50 68 44 55 44 64 60 78 57 67 51  68 160 61 48 60 62 46 18 -8 48 37 50 45 67  61  57 65  5 40 79  45 70 48 46 69 66  74 66 -60 37 43 64 35 33 90 37 59 78 34 58 29 63 79 46 63 70 79 -82 59 52 36 75 11 55 50 66 65 70 63 30 42 63 62 67 62 33 67 1 34 69 56  62  61 54 109 19  14 48 60  -6 3 35 20 37 76  41 50 60 39 57 48 49  56 30 42  37 67 55  58  45 61 74 69 -62 51 44 42 56 56 54 39 64 28 31 50 -58 37 82 32 51 62 77 33 34 27  61 27 35 41 34 89 69 8 53 74 46 44 54 41 42 75 43 28 62 35 119 54 59 46  24 57 55  70 14  61 8 50 29 70 65 -6 32 61 60 50 76 43 64 28 48 60 13 59 17 52 28 43 70 63 53 0 0 -24 66 -16 43 66 47 7 63 70 38 44 57 43  15 53 35 11 56 73 68  67 53 62 49  27 66 44  81 49 26 60 59 79  43 53 46  69 52 75 22 75 40 -20   21 64 57 43 57 49 17 43 54 45   71 22 74 58 62 23 38 45 53   27 28 38 56  97 45  66 52 8 59 61 36 54 56 13 74 47 67 27  28  4  27 56 66  64 -49  78 77 59  39 58 14 -31 0 43 44 -33 66 46 54 79 52 71 43 22  46 62 56 18 62 49 25 83 51 52 61 22 31 42  42  21 56 50 62 60 17 -38 37 263 59 31 27 56  37  0 58  66 92 57 66  20   44 -44 59  37   67 53 74 46 1  79 52 50 63 68 22 39 44 68 44 6 74 44 42  48 32 59   79 65  47 69    -46 -86  64   18  30  49 76 40 9 54 22 49 14 37    56  9 72 72 66  58 79 45 45 66 48 53  77 83 44  56 64  36 39 -50 46 42 42 52 20  66 68   79  56 11 32 51 43 72 36 59 23 41 108 49 41 78  3 17 29 -14 44 -16 28 58 38 69 85 82 45 85  55 53 47 60 72 39 0  6 25   52 55 65 45 71 67 51  19 67 65 41 45 23 53 -90 58 -34 23 31 10 81 55 69 -7 60 75 19 -21 96 61 89 68 41 52 103 0  4 63 48 67 65  25 80 -50 58 59 42    35  73 19  76 44 28 44 -20 34 66 61 119 28 55 58 81 31 0  20 -61 77 51  60 64  58 32 17 30 -8 32  47 60 42 72 8  56 77 44  41  62 -61 70 64  53 -12 65 -79 49 74  35 50 71 56  55  70 80 -18 12 67 65 68  23 72 11 -76 18 49 64  66 64   68 54 73 33 36 54  57 54 61 61  41 -24 46 57 70 57 48 77 59 68 265 -13 55 40 -82 56 74 58 52 72 78 -9 57 61 59 45 62 49 74 64 57 71 54 79 33 48 -16 74 69 -24 31  49 51  22 64  60 -20 55 64 42 72 55 34 52 40 61 21 50 45 51 70 78 43 -12 63 80  71  15 65 53 64 -55 50 52 37 76 56 38 21 40 80 83  63 72 34 90 51 63 35 12 8 32 63 61 32 73 49 47  56 77 81 55 71 68 -3 99 65  74 60  62  42 64  37  65 47 61 64  44  35 44 56 21   34 44 54 72 64 -28 30 62 39 72 27 45 60 49 74 116 71 69 45  52 77 60 49 33 0 2 25 65 242 49 91 -15 27 60 56 63   72 91  63 7 78 76 31 68 42 40 89 33 48 80  29 27  68 50 43 24 68 55 64 15 43 48 59 57 60 85 8 21 -35 58 29 42 -13 113 69 56 62 48 58 -11 68 29  76 61 39 43 57 69 26  67 29 13 48  23 21 37 78 62  -40 60  0 27 49 3 37 60  60 79 65  59 29 44  54 53 67 59 60 74 32 67 66 28 65 29 64 -7 49 75 68 77  53 49 59 -11 54    73 49 58 20 8 39 29 64 78 61 81 -17  1 53 101 48 60 -68 54 269 64 62  4 23 76 69 58 40  15 21  64 60 41 40 64 23 44  53 -14 62 52 51 -33 40 45 37 29 47 53 70 104  71 61 45 87 7 38 59 78 66 72   63 53 4 73 24  45 61 -30   69  70 58 70  -66 74 46 50 56 61 69   59 69 77  61 67 70 67 81 78 42 66  30 82 12 34 71 73 43  51 56 53 58 108 38 45 35 42 0 43 75 82 9 66 6 60 41 76  14 67 1 33 45 8 81 56  33 45 61 67 59 67 34  -51 40 56 58 51 -85 -3 -1  54 59 60 50 37 68 -40 50 -2 91 65 54   82  92 64 65   54 34 69  67 4 36 73 -57   33 74   40 29 60 35  -11 45 53  51 40 56  55  13 47 46 24 47 78 38 29 76 20 67 46 29 64 9 58 72  63 32 53  72  45 -29 53 66  58  85 43   83 63 -33 61 59 33 54 49 24 67   70 38 43 31  70 60 66 70 49 62 33 51 -33 36 79 38 38  44 77 -13 69 52  54 50 31 70 75  36 46 55  57  65 21 79 9 23 52 62 70 39  41 65 53 74 29 75 26 21 74 45 50  68 -42 59 54 73 65 12 63 66 40 75 43 43 -2 34  43 41 28 43 61 66 40 -51 59  73 45 83 57 12 55  18 42 76 30 50 63 49 72 69 46  44 63 67 16 59 61 65 46 22 72 8  58 -8 50 51 67  65 55 11 28 -7 68 73 0 58 11 -19  78 12 0 65 55 65 8 60 23 46 44  56 59 62 50 75  47 68 37 80 50 68 28  46 58 58 79 58 -47 61 -4 53 55  46 53 -1 28  -24  83 62 44 49 46 41 61 74 84  13 70 -13 60 77 -33 21 36 41 57 73  58 21 68 47  30 -52  50 68 51 59 65  76  56 66 40 36 25 45 7   54 68 61 58 77 53 67 24 67 38 71 19 64  67 49 45 33 29 -13 57 58 30 90 47 71 5 32 46  57 46  60 62 37 35 -15  27 57 11 16 48  -17 50 34 56 39 78 66 73 71 20 73 67 6 75 41 69 18 61 54 35 57  36 61 70 102 58 226 62 20 48 58 -30  58 81 37 69 22 66 6 37 0  38 79 64 69 59 43 64 -15 68 -2 64 61  63  46 30 16 31 45 73 49 27 45 58 50 23 61 59 41 254 44 56 46 0 10  5  51 77 3 70 18 54 10 59 44 -20  61 75 10 78 38 54 72 69 -80  73   39 35 68 70 74 61 55 48 44 76 29 26 64 -21 250  13 -36 47 73  90 67 78 35 55 -13 36  58 81 34 71 88 47 71 77 67 68  47 46 54 48 61 56 52 36 73 60  42 -37 56  -2 44 37   64 21 37 48 28 58 -5 70 72 76 57   65 35 63 24 36 76  81 58 58 -31 71 37 51 4 51 72 71 28  70 51 57 39 56 76  33  35 69 79 83 32  39 72 93 47 41 69 51 69 42 22 67 10  53 50 58 1 1 22 64 54 27  76 48 61 64 50 -31 55 47 41 48 43  84 31  52 50 79 84 44 33 24 74 44 40 43  64 34 38 71 38 79  17 78 84 59 72 61 82  66 64 69 50 14 46 95 52 55 24 73 56 20  77 21 59 63 104  13 37  35  7  76 50    59 21 49  56 76 41 37 73 80 52 266 35 48 49   69 51 57  63 38 55  40 72 64 57 78  60 64  21 25 59 43 68 26 54 116  4 -67 46 36 64 79 44  67 19 60 19 57 46 82 0 51 5 63 48 14 54 38 47 60 61 50 64 64 57 51 61 31  45 70 67 31 36    62 31 13 30 58 48 49 57 32  67 48 67 33 -35 -16 62 17 93   49 43  -26 56 6 29  39 75 52 95  34 22  61 79 65 22 64  35 48 35 41 68  67 53 -25 -1 59 35 52 67 27 51 75 25 58  64 55  53  56  47 58 83 52 28 37 62 52 52 0  53  32  53 -31 34 19 61 66 64 84  56 72 67 56 52 0  55 49 76 58 -33 61 62 66 43 70 45 84 41 21 26 68 35 66 55 58 65  47 48 2 -25 31  42 51 40 35 24 55 39  57  67 17 77 58 68  40 45  69 42 37 47 65 53 82 49 65  64 44 -13 55 44 54 62 48 12  -6 68 47 75 31 42 52 69 58 86 67 77 68 44 64  0 24 40 11 43 50 74 82 74 58 14 67 73  55 65 45  -17 12 73 10 62 7 65   33 3  58 62 34 40 53 49 56 33 81  9 -7 -7 -4   79 30 67 44 55 4  25 54 52  36  48 66 54  51 74 5 19  36 59 31 58 -1   57 82 64  -30 9  72 56   61 0 70 45 23 76   41 57 36 -21 78 31 22 57  46  66 67 30 78 62 9 58 29 0 34 -37 58 44 65 33 78 75 9  77 66 -37  71 65 -9 35 78 49  68 71 38  5 65 78 79 27 59 59 35 69 32 80 36 65  73 68 68 80  55 51 61 48 64 54  55 45 52 43 49 36 28 63 3 68 79 59  35 66 62 -52 80 52 80 74 89  50  48 69  70 58 13 63 24 62 28 101 34 35 70  14  65 77 36 65 71 66  70 41 19 72 4 46 51 70  42 66 76 46  74 -28 -3 28 47 28 30 71  70  -87 42 19 55 53 -49 32 -10 52 64 27 41 53 72 43 45 4  43 67 36 31 8 81 28 73 69 67  72 49 64  69 79  55 60 63  68 28  57 53 5 20 38 46 31 69 65 73 71   59  59 70 91 38 30 50 66 66 60 61 39 47 77  49 25 83 40 59  77 74 51 88 59 28 29  5 17 18 69 93 49   47 10 60 44  41 48 55 64 49 -43 67 57 48 84 49 66 47 107   85  -2 83 49   47 41 26 41  21 80 -28 80 -86 68 -51 40 70 48 76 38  41 37 55 14 33 -51 42 74  45 83   44 30 0 45 4  28 25 45 28 -30 52 49 -37 43 50 77 73 17 0 60 41 86   44 38  69 53 101  48  30  52 65 58 56  56 77 70 65  48 41  7 56 56  57 77 39 71 67 42 45 52 77  57 54 65 81 38 78  58 77  38 36 27 54 62 67 30 41 15 46 67 81 76 48 19  37 69 45 50 58 48  37   69 83 83 78 59 49 46 66 78 245 110 68 62 54 43 64 84 57 54 48  52 21 66 47 55 23 31 45 -20 57 82 -17  46 51 7 31 44 72 55 27 42 39 49 73 -2 44 27  65 40 61 51 30   19 36 57 36 80 49 42 -10 46 68 45 62 74 28 44 42 44 76 62 57 60 79 33 77   49  56 68  65 67 58  38 32 38 80 48 56 55 66 61 56 67 76 29   67 62 67 -43 49 55 61 35 33 74 60 6 10 63 40 71 57 76 37 77 14 47 59 83 43 75 80 57 58 78 50 106 76 40 52 55  63 62  0 66 55 75 60  54  59 36 31 37 41 55  94  64 41 75 29 43 38 51 65 70 22 46 70 39 63 65 52 58 29 13 45 27 66 47 48   0  29 -17  69  56 50     0  -3   72 56 16 63 23 61 24 43 56 51  61 46 61  64  86 29 69  81 -51 29 6 42 75 34  67 2 73 -13  -37 18 53 48 52 26 80 55 73 60 84 18 71  76 84 59 56 60 72 71 -41 76 52 72 -41 61 29 52  64 -4 43 41  18 42 69 74 57 63 68 -46 10 35 61 31 57 63 66 46 57 44 73 66  1 6 249 56 28 64 74 13 41 53 -11 64 32 63  15 90 63 43 74 70 33 35 65 34 66  25  62 53 66 57 39 -31 60 -14  98 40 22 61 63 1 55  14 57  65 39 47 52 -3 44 10 50 49 50 94 63 43  -12 33 72 24 46 73  0 34   40 43 50 53 80 17 77 69 -30 63 51 52 51 58 54 41 50 28 75 13 52 33 78  77 77 67 46  6 78  26 66 85  46 56 52 4 35 58 60 77 54 67 70 54 30 15  34 75 61 39 44  52 64 76 -14 58 -7 74 52 9 65 7 41 67 29 65 -6 74 -46 -12  39 45  26 53 16  54 74 56  72   73 66 40 -20 79 -39  79 32 60  46 44 1 26 44  17 21 62 65 74  55  52  56 67 73 21 51 77 39 -1 63 60 72 77 72 11 71  65 56  65 65 49 59 52 47 42 -19 69 51 72 56 66 0 39 0 -39 27 83  33 55 30  68 19 75 26 38 19 52 25  22   9 45 67 46 50 43 69 53 37 63 39 20 44 51 52 43 25 57 75 23 73 65  34 61 81 32 65 67 68 76  41 56 -20  20 36  19 65  35 31 51 63 41 48 96 33 19  -44 43 71 33 54 64 70 63 51 67 37 61 24 25 44 30 58 44 -3 62 87 73 48 -35 69 59 71 49  60 64 35  86 9 82  73 34 33 49 56 71 57 59   67 70 -17  67 66 57 55 7 52 77 54 69 83 56    44 9 65 73  30 -16  70 58 62  68  65 43 82   81 52 54 68 47 9 -3 74 60  71  61 59 -1 59 94 -80  95   54 46 0 -4 72 28 60 82 43 64 52 51 79 -14 49 53 -49 41  -11 10 32 59 15 25 17 63 65 76 67 51 62 48 54 14 30 56 52  44 43 70 26 -35  61 64 36 110 18  9 42 46 57 58 35 54 59 44 22  49 51 54 32 265 54 64 -30 27 89 69 29 65 79 71 75  78  36 75 70 60 76 66 34 57 93 -77 55 46  28 46 67 68 58 51  77  39 81 24  63 92  59 53 78 74 73 25 54 73 -42 69 75 5  43 80 15 10  79 40  54 42 54 71  53 -16 70 27 93 31 54 47 63 68 36 76 53 268 62 44 80 53 62 3 103 83 22 72 18 77 68 42 21 56 16 50 63  -47  78 51 33 28 81 77  50 78 49 28 105 67  66 -1 68 60 70 36 -39 52 53 53 63 94  61  26 69 -27 51 54 6 30 68 55 29 60 59 66 12 66 -35 46     -9 73 55 63 29 50 64 62 49  82 74 76 5 76 72 34 0 41 -89 -27  -31 44 59 16 68 49  76 27 75 34 41 8 75 67 12 58 59 44 83 44 63 50 21 94 34 63 43 58 34  58 46 72  74 38 50 75 63 35 257 45 71  103 48 51  46    57 79 54 58 -31 38 42 49 46 52 -9 54 -46 40 -35 46 50 56 22 68 54 37 75 79 58 51  37  17 14 53 73 -37 35 76 90 28  37 0  79 88  73 8 46  73 25 246 39  61 63 54 94  -19 57 59   62 41  19 74 80  43 76 74 42 41 33 73 22  84 79 109 86 69 50 78 16 38 70 85 68 54 48 65 59 42 75 118 51 69 55  63 228 12 75 49 40 77 68 77  34  -47 42 71 54 36 42   68    55 36  76 -44 1 67 19   39 49 68 60 68 75 47 -19 65 53 45  65 74  64 59 68 37 34 52  51 55 69  63 73 20 40 12 -12   70 76 59 24 45   -24 61 27 29 52 69 7 43 16 40  43  26 -3 58 77 56 -24  64 74 34 76 5 21 49 65 59 32  -13 61 23 37 66 63 40 65   85  51 68  75 91 63 56 45 81 45 29 79 61 65 44 58 76  63 68  30  43 29 17 37 63 65 69 39 55 30 43 0 54 39 72 -43  69 66  29 77 64 1 11 53 -9 66 76 79 51 59 56 59 51  43 81 43 55  10 71 88 -17 54 76 74 58 27 83 48 44 61 55 73 53 44 55 54 52 68 49 43 73 65 73  68 40 69 62 57 43 15 41 57 53  17 59 33 73  29 50 78  65 64 43 67  20   72 39 36 68 39  48 85 71 25 -8 40 64  69   57 -4 74 -40 35 66 54 51 25 84 75 61 35 107 79 41 43 32 17 71 39 59 88 70  12 79 69 40    3 70 35 76  52 14 59 21 72 60 5  -57 56 56 39 22 42 53 25 -69 78 48 69  70 49 69 30 49  47 44 72 63 58 59 71 61 0 57 29  38 54 14 63 -68 -48 26 37 29 56 68 35  23 48 70    51 46 50 40 69 76  64 49 58 43 -2 27 57 72 -62 -19 71 28 62 -16 58 93 80  61 46  9 71 12 46 69   72 16 40 38 54 76    49 10 38  70 74 64 30 27 44 70 52 37  78 96 64 56 -9 100 39  81  84 56 64 10 59 20 34 68 88 31  37 75 64 56 26 74 50   60 72 -13 81   75 62  35 67 53 74 46 65  75 70 72  15 68 39 64 24  67  70 34 39 92 90 52 58 58 81  64 65 43  9 49 40 2 62 66 27 10  69 71 34 64 71 62 46 38 36 82 55  -54 15 61 49 72 103 64 50 68 74 36 61 65 46 1 27 60 64 42 15 -34  -34 -8 71 51 63 61 49 49 58 56 69 69 97 62  61 66 -3 18 1  75 40 78 48   85 -50 58 50 50 69 17 56  61 126 72 34    12 69 44 64 81 54 62 36 57 72 66 75 53 52 69  37 50 54 54 37 58  51 22 -12 40 0 -2 35 56 75 41 57  52 77  79 62 74 72 57 62 42 59 67 61 79 48 10  46 73 247 61   47 85 35 68 48 38 27 61 73 31 44  27 63 60 89 73  75 26 77  -13 49 72 -3 50 74  76 83 72 43 57 82  38 2 74 78 53 9 81 73 65 51 77 37 32 213 38 74 67 48 45  56  53 62 82  53 64 69 48  50 51 59  52 -2 60 70 65 56 63 37 35 29 68 50 66 65 84 60 -4 69 11 51 65 90 40 33 42 72 56 85 54 78 54 73 64  60 54 62 -28 53  75 61 37 92 24 41 40 71  31 -3 0 74 52 -6 38 52 86 40 49 72 33 55 74 76 55 53 79 51 72 61 72  71 78 38 31 139   43 72 51 56 54 30 72  60 86 80 49 53 67 44  -10 78 -77 29 0 38 67  20  38 79 46 49 77 64 49 72 68 18 91  45 39 51 53 52 83 26 57 69 58 47 49 69 0   67 61 8 46 70 -18 40 38 62 58 59 59 28 78 69 57 1 71 34    -20 25 48 7 -4 30 76 35 31 47 30  14 41 53  72 53 7 62 52 74 65 43 65 53 57 94 53 60 31 -6 44 33 53 52 84 60 73 53 1 58 53 33 9 50 43 64 47 37 54 42  60 18 7 54 -16  -4 63 44 -15 44 64 45 66  65 20 76 11 50 74 98 74 12 72 73 -32 44 53  81 53  10 88 46  60 44 27 77 59 81 44 29 -8 72  81  7 62 43 73 15 6 63  46 41  56 -33 64 26 66 0 81  59 47 60  57 58 51 45  80 57 34 44  82 24 48  5 58 26 73 80 58 67 61 40 63 68 75   55 -9 51 68 50 30 73 50  9   3 57 56 65 13 31 30 57 78 81 73  56 51 62 46 45 36  56 51 41 34  76 2 56 38 51 57 71 74   75 37 53 50 78 27 -6 70 -81 54 44 68 53 5 68 53 50  70 75 67 34 50 56 65 42 55 36  51 59 35 26 58 70 48 0 64 51 64 46 110 37  62 61    47 46 72 60 54 65  37 44  73 62 33 265  59 -4 73 77 71 54 71  63 54 55 16 65 61  61  27 257 56 71 68  14 -36 43  65 43   77  69 67 72 50 -32 49 -10 81 33 25  57 50 -36 49 -24 93 31 66 62 -44 47 75 62 60 35 72 34 44 62 65 17 29 75  -30 22 23 33  77 37  58 37 54 59 58 66 75 54 51 20  65 45 58 58 37 68 31 71 2 38 82 4  65 64 60 80 67  53 78 55 76 45 50 71 75 42 46 44 64 -5 51 38 56 18 20 16 12 -1 48  77 28 54 23 74 9 -8 35 76 49 80  50 61 34  44 66 44 45 46 -18 60 60 60 -15 40 73 17  67 23 42  34 0  71 -30 53 20 51 66 63 32 80 56  66 47  50 83 4 89 30 63 27 54 0  71 42 70 46 72 74 39 60 69 44 60 46 54 60 11 18 64  48 73 41 23 77  70 37 19 59 60 49 51 53 59 77 13 66 52 -3 0 47 101 31 76 -37 48 51 70 60 70 51 38  64 62 68 82 70 35 -2 57 73 25 69 68 57 51  52 88 48 59 63 69 55 79 101 70 39 41 51  53 39  -14 32  55  69 17 49 63 55 68 55 45 17 50 69 56 19 21 41 23 74 69 27 36 38 28 57 10 65 74 20 32 63 59 86 -86 -4 3 43 61 2 18 62 2 31 48 37 69  57 92 14 0 54 35 62 69 40 67 33 42 48 66 26 49 59 67 -4   66 73 57 73 23 -70 54 -2 -21 77 6 6 16 87 79 27 23 18 59 -11 44 8 49 56 70 63 15 30 58 59 39 -38 81 78 48 67 43   74  66 19 76 17 30 54 56 62 49 73 -52 54 51 76 53 45 55  67 54 78 58 93 75 50 58 84 29 70 70 72 69 52 50 1 47  61  56 62 79 54 94 71 59 53 63 25  73 66 92 8 73 57 75 13  41 8 73  17 60 92 50 64 74 42 71 20 63 33 68 53 58 18  45 64 49 33 87 56 76 41 67 76 50 70 37 24 41 48 20 57 65 53 16 5 35 46 8 45 36 65  56 35 -5 -89 43 -52 73 47 12  61 63 13 80 67 44 33 83  57 57 37 60 77 -3 28 71 59 50 47 68 70 29 35 20 31 36   51 66 53 46 56 68 70 65 19 60 51  25 53 56 6 52 -37 43 74 62 40 47 72 54 27  -4 16 52 37 69 50 68 68 47 52  13 70 30 80 47 50 40 72 0 46 46 46 -9 -7 75 71 59 35  70 -78 -34 108 -1 -37  76 60 67  9 49 42 -31 25 66  65 70 79 85  60 64 49 45 15 59 28  58 82 19 70 81 46 65 68 50 26 24 81 62 71 49 47 76 -48 73 265 71  52 55  -44 67 115 2 75 19 84  8  62 53  62   35 16 45 55 49 49 38 27 11 2 50 55 79  -52 5 24 55 82  40 42 61 64 61 46 63  18  58 62  71 81 51 54 80 42 29 41 66 29 -52 64 79 -22 84 -40 73 -17 62 60 22 84 2 69 58 59 66 47 46 29 66 46   71 70 43 59  70 81 12 78 76 69 58 56 74 63 47 67 75  61 34 63 47 46 39 52 67 36 4 64  -13 38 57 23 20 60 77 26 71 68 40 53 63 75 51 75 32 57 58 50 63 57 54  60 66 42 70   28 20 9 47 62 38 0 17 2 23 28  27 62 46 20 -45 84 62 77 71 50 44 30 70  66 40 62 43 76 50 100 67 80 67 63 53  72 90 67 69 50 44 14 -11 68 44 20 31 59 70 51 35 34 49  49 0 13 34 22 47  28 22  37 69 45  65  74 103 46 53  77 85 53 66 49 64 50   72  67 62 59 58 43 46 17 47 57 72 56 65  54 39 62 -1 34  61 36 55 70  66 25 70 58 68  65 48 17 63 19 44 -25 25 64 51 69 62 46 76 43 72 88 70 57 92 73 0 56 31  17 69 66 56 40  41 75 27 40 73 42 69  69 43 81 29 -8 20 49 45 72 17  65 44 55  98 22    26 20 80 7 60 51 42 38 57   88 85 7  40 64 8 33 7 0 42 40 59 65 28 4 51 81 52 82 77 83 18 78 60 71 56 14 41 59  66  15 50 67  66 74 58 51 66 44 78 26 81 18  35 58 89  65 76 47 54 66 57 20 35 26 2 62 75 51  28 54  48 11 79  75 82 67 16 20 51 9 78 36 57 84 66  89  64 55 60 57 31 52 63 47 58 49 -34 -6 31 26 55 52 51 65 60 63 64 82  69 72  52  40 63 110 64 71 59 68 38 60 31 -37 76 40 42   26 44 40 -4  66  74 65 65 -5 50 59  69 71 48 85 68 81  -40  56 52 42 255 37 65  40 57 48 52 19 97  39  44 110 33 31 42 73 58 -19 83 58 35 76 28 79 57 100 61 68 36  66 52 60   76 -16 33  -29  53 74 0 21 10 51 -52 42 36 36 54 14 34 7 32 56 36 57 32 47 58 26 77 39 -5 59 52 31 53 83 77 81 60 46 47 54 38 75 51 6 78   51 55  63 57 54 49 55 63 50 42 43 56 13 44 67 46 56 51 55 55 39 54 67 51 -10  52 69 30 53 39 60 66 37 -1 78 63 47  43 62 76 45 68 84 45 76 55 34 56 53 49 57 80 73 47  46 51 70 31 52 40 38 68 31 25 53 64 36 55 38  0 61 67 30 63 55  64   34 70 18 31 51 42 53 34 88 -19  67 68 -47 53   65 88 42  49 29 59 61 61 61 45 66 55  67 68 44 80 -1 27   18 68 16 93 53 47 74 60 46 66 72 11 63 71 56  50   47 66 29 78 44  30  -9  39 69 56 40  33 65 71 55  9 24 40 46 40 -38 55 31 68  59 71 25 79 66  69 73 56 45 64 54  75 73 62 49 74 18 36 18 83 96 55 54 65 35   59 42 61 54 -1 58 61 64 69 75 -30 67 42 63 31 62 88 54 71  32 41 61 53 15 74 19 26 59 37 12 75 55 46 68 8 68  50 79 63 56  61 71 42 30 60 75   64  78 45  50 -40  81 -73 75 81 57 66 36 46 78 32 25 60 70 67 39 71 59  -48 42 42  67 72 68 51 61 2   36 42 48 50 51 8  70 37 -5  33 72 90 78  85 72 -34 54 52 73 71 62 73  77 -53 10 3  66  62 19 40 74 24 36 35  76 34  56 44 40 59 51 72 58 72 48 270 75 -25 56 80 53 19 51 28 52 10 66 69 56 26 46 59 53 72 15 42 56 28 13 57 36 41  65 57 21 67 63 67 39 41 76 49 63 1 7 45  58 70 75 76  18 54 39 -15 27  77 46 71 73 56  51 68 39 56 65 12 72 54  80 48 55 54 89 73 -21 75 28 71 41 30 49 68 71 62 35 70 46  29 92 37 50 45  64 52  67  47 31 5 14 59  65 256 58 58 46 30 31 54 58 48 77 44 40 46 54 81 62   78 14  62  -73 47 47  71 30 27 58 45 10 74 68 14 50 47   61 84 44   72 66  53 61 43 80  -81  51  68 68 63 78  74 66 54 72 66  67  56 32 39 73 65 0 54 73 23 71 0 60 41 38 67 48  68  16 56 44 34 17 24 5 75 56   -74 51 -25 77 15 -5 62 44 8 81 21 62 61 -2 41 32 61 35 50 59 51 50 33  59 24 79 70 13 67 59 66 75 30 69 7 70 66 -31 18 73 18 66 55 40 50 44 60  43 75 70 73 65 20 50 72 -12 67 64 43 37  59 42 60 72 34 78 62  61 77 43 77 65  70 41 44 31  15 77 47 66 43 44 67  70 55 54 78 51 20 22 47 33  16 64 38 0 56 64 53 46  42 86 64 59 77 67 48 40 32  70 24 58 37 25 53 63 36 48 69 11 59 28 60 12 26  25 68 69 59  36 0 -67 66 60  76 48 20 59 34 72 -6 73 70 47 21  24 66 40  35 53 42 47 19 84 -3 80 64 79 70 46 74 84 66  48 76 67 49 48 77 39 72 48 70 260 70 -65 63 -12 65 52 44 45 42 39  -9 57 42 69 43 64 12 12 50 52 58 47 51 47 -28 14 32  52 49 47 50 -3 67 79 39 64 56 53 59 57 52 47 71 58 40 66 62 56 48 34 -19 54 54 38 48 68 38 62 57 17 32 49 39 66 47 65 37 17 70 50 73 54 13 60 6 32 51 28 66 63 60 71  57 68 49 67 52 42 49 74 66 -11  76 43 44 65 62 52 12 41  32 69 65 51  38 40 57 69 71 59 -42 1 66 59 63 60 57 73 34  62 52 35  51 35 -22 68  32 61 75 75 63 40 -89 76 66  77 -5 -39 58 67 49 22  64 73 39 62 86  263 66 57 67 66 58 36 72  12 76  45 82  78 26 66 18 73 68 41 56 77 74  51 56 55 75 61 72 43 29 66 65 62 47 74 70 52 56 51 78 -16 39 36 83 0 38 46 72 83 75 74 65 13 66 50 -34 84 47  76 42 16 54  57 56 58 82 68 46 26 50 56 47 63 56 67 36 59 68 56 64 64 52 80 72 23 75 57 36 47 55 6 61 -3 40 78 58 70 81 74 82 37 75 49 11 69   39 46 52 56 39 55 22 42  64 61 67 25 74 58 56 37 17 55 75 48 74 37 8 70 56  50 63 35 47 90 65 55  11 45 -16 -3 16 56 42 74 46 51 19  72 -6 -1  24 52 62 56 24 18 44 79 63 73 40 48 58 78 48 68 32 51 79 35 68  83 23 46 62 34 59 22 67 67 16 68 48 42 77 46 50  30 35 30 37 53 57 42 71 60 56 25 29 8 36 57 12 70 33 42 34 38 60 63 47 22 45 -14 25 41 43 59 67 75 39 51 65 38 67 16 77 55 72  39 71 64 65 75  77 41 28 55   39 22 259 51 64 54 40 43 61 4 17 65 38 46 64 60 65 75 62 44  33  64  -7 50 47 20 80 71 56 55  39 58 56 49 44  57 64 57 8 45 71 24 22 48 26 57 50 52 41 52 65 68 60 -3 23 65 11  -7 64 34 49 68 60 42 47 66 40 56 76  -34 26  65 82 71 55 60 58 63 74 26  49 43 40 51 64 61 13 52 64 66 75 53 63 64 20 77  45 11 -6 56 64 34 29  48 19 75 66 49 67 37 69  47 80 45  43  38 69 65 -5 45 59 14 57 -74 66 70 43 56 25 0 -6 37 55 55 62 43 78 64 80 16 63 -5  -40 59 57 62 66  54 26 55  60 69 5 48 24  81  67  66 41 57 51 31 63 29 70 48 45 57 80 44 13 53   70 78  71  22  59 58 24 25 58 50 50 76 70 64 66 76  77 26 40 78 67 38 63 43  32 40 54 34 64 44  56 76 20 16 0 55 -70 25 18 -78 51 65 84 79 58 71 62 70 34  54 44 33 56 21 59 58  59  70  65   23 -7 67 63 14 59 71  82 55 81 36  65 73  225 36 38 51 53 47 48 66 27 48 27 46  64 -5 -10 77 49 48 50 -3 20 62 56 41  73 47 54 53 56  47 56 57 66 -7 70 51 35 48  74 24 94 40  75 74 56 41 54 78 55  42 68 74 26 67 71 86 43 51 41 80 42 7 37 34  62  60 48 69 -33 46 73 78  65  73 76 60 15 32 54 61  46 64 50 76 61 47 45 12 63 10 53 74 -4 91 25 68 49 35 60   117 41  50 8 61 59 57  59 57  46 51 -23 63 27 69 60 77  56 38 69 73 16 60 35 50  70 39 -12 57 90  51  52 61 32 57   76 78 47 55 52 53 40 18 62 40  -40 77 81 36 17 76 61  71 12 77 40 52 60 42 75 60 100 47 19 79 72  69 12 83 32 77 11 34 40 48 42 32 77 57 68 33 21 61 56  4 82 17  32 31 99 22 34 82 68 52 58 3 62 57 53 41 44   73 74 66 15 63 46 56 30 36 55 67  68  61 -33 72 59  50 62 75 26 17 55 46 37 48 55  77 17 67 69 68 32 31 70 27 49 52 42 89 74 73 0 54 52 75 62 50  72 55 66 46 44 74 265 43 78 1 49  36 53 64 7 55 52 51 41 47 50 41 -17 -28 16 52 59 63 22 42 42 51 45 59 62  24 62 55 58 50 49 53  31 -32 79 69 49 17 58 10 -8  7 67 32 46 70 19 21  52 -6 32 30 33 39 33 52 67 25 4 75 64 0 8 29 43 52 57 71 59 67 3 75 79 70 36 72 56 55  66 34 53 12 72 63 52  67 55 40 58 82 44 259 65 76 57 74 5 49 0 70 54 47 93 48 65 74 49 25 78 77 47 65 47 0 27 58 69 26 23  59 40 60 69 66 41 51 56 14 72 77 58 71 51 47 -64 57 80 -16  15  45 49 65 44 64 56 68 57 70 80 14 73  12 69 80 46  34 49 75 65 58 63 59 -3 79 12 39 15 85   249 -1  60 52 20 44 46 57 16  81 67 62 58 63   0 58 54 45 52 54  45 30 -10 67  82  30 51 46 67 44 258 16  77 39 79 44   43 42 39   45 50 61 80 -32  54 38  0 58 68 47 59 13 40 63 29 54 75 98  49 45 50 64 68  -12 77 65   60 60 50 41 66  20 45 7 72 34 72 77 51 43 64 48 36 78 71 15 46 70 21 66 67 79 77  -13 54  66 -33 72 61 51 -2 54 46 48 59 53 61 -39 60 59 44 32 79 57 40 75 42 72 53 62 65 66 64 58 80  43 40 64 69 64 23 55 60 60  77 27 61 65 66 44 66 41 7 51 51 61 63 60 12 78 80 44 84 57 38 19   21 48 68 51  52 35  67 2 66 40 69 4 17  0 55 49 46 18 68 55 71 64 44 95  62  61 66 69 61 56 -23 10 69 21 54 47 74 56 77 11 80 58 60 40 82 46  34 73 -21 43 83 43 60 61  9 60 40 12 1 -19 50 77 0 62 79 41 52 78 72 56 65 40 79 97 45 -40 58 -33 70 63  11 33 51 30 70 49 -82 79 55 57 70 38 62 58 15 58 49 -42 32 66 68 55 75 51 69 21 50 52 52 67 75 -41 57  70 25 49 62 69 63 79 43  64 61 44 56 68 36 38 63 66 22 60 53  68 48 33  56 -9 -9 4 52 32   -1 11 0  41 70 28 49 74 49 66 75 67 63 10 98 57  54 62  72 37 40 53 -43 64 11 59 72 3 68 53 39  54 29 57 16 67 71 57 0 34 39 76 15 -6 57 78 66 73 70  52 75 64 46 56 65 60 52 79 46 60 31 72 41 27 -38 83 32 67 45 73 39 75 4 75  0 69 35 -34 62 62 68 -39 58 -31 69 30 44 73 58 37  67 75 54 61 52 60 68 55 36 57 67 0 59 35 31 22 74 82 28 83 72 53 -34 72 32 61 55 55 33  97 64 65 33 73 34 34 74 45 12 61 57 68 7 44 69 80 265 70 47 -56  85 36 0 -3 59  76 54 62 54 31 73 100 16 72 65 68 62 19 26 71 38 60 45 -13 12 61  77 31 67 60 49 43  32 70 44 50  36 38 38 62 52 72 42 66 67 41 67   64 33 63 67 19 58 33 53 67 62  49 83 14 -41 45 60 39 45 42 18 34 18 39 37 -7 73 -16 39 265 29 67   46 75 68 36 34 -10 33 0 70 -30  74 -39 67 57 78 35 58 64 -87 -39 71 114 61 74 65 55 38 40 50 170 40 47 18 32 33 27 0 41 60 72 0 26 -33 23 74 23 76 27 34 48 58 -25 61 48 54 29 71 -8 41 68 71 52 25 34 33 64 71 40 81 56 61 70 39 63 267 76   51 76 86 40   39  79 24 -34 65  0 83 0 80 86  72   33 33 53 58   -41 54 24 48  71 62 67 16 14 7 183 73 59  51 67 75 80 41 63 42 72 27 56 22 51 74  59 57 33  79 73  74 73 12  56 67 38 58 68 41 43 24 42 47 21 46 53 51 35 19 50  52 65 73 86 21 23 42 34  -13 58 60 65 33 51 51 73 3 69 25 42 36 9 0 66 24 41 63 44 40 67 70 52 74 45 5 49 33 9 63 252 38 40 -32 63  24 73 69 56 -75 67  46 56 43 65 97 20 -27  158 48 0  -35 65 52 72 49 64 -72 6  68 40 61 74 62 46  56 47 71 72 95 66 69 67 56 -6 -10 11 51 237 0 79 71 55 35 40 27  55 47  45 89 57 57 116 53 82 67 72 63 61 54 75 85 79 257 46 0 19 16 54 64 52 20  84 82 84 44 57 42 28 47 118 57 66 42 10 65 -12  53 30 50 53 70 64 45 60 40 30 78 44  67 51 79 82 60 30 70 70 249 75 64 61 69 49 0 43 53 29 59 49 57 32 -40 71 45 66 28 42 47  43 54 68 69 32 -31 230 -2 0 59 35 67 -37 64 74 50 36 35 56 33 11 15  39 19 51 73 75 75 71 34 6 52 54 45  10 76 33 46 72 77 -29 67 15 0 -87 57 36 32 74 62 40 68 7 76 33 -32 26 76 0  -34 76 36 88 51  41 1 26 33 62 76 62 67 17 47  -62 64 46  0 -35   47 79 67 -26 -47 83  51 43 73 40 76 41 55 62  -60 12 51 20 48 67 -33  45 11 15 31 227  72 0 0 57 17 -34 44  -32 -8 78  60 78 36 45 82 23 69 82 52 82 73 0 78 32 57 -62 45 57 0 61 30 51 119 53 58 73 57  94 64 40 82 0 24 57 57   73 47 -43   37 37 97 63 46 43 76 57 36 72 73  0  53 60 71 77  68 55 20 -34 72 55 55 -77 69 -27 118 64 7 86 51 60 61 67 14  45 29 73 -35 0 46 58 9 68 51 0 35 -18 76 -77 61 55 25 -86 72 -46 74 9 39  64 58 71 45 25 58 46 70 47 44  64 -13 -35 53 49 46 74 9 39 36 60 62 7 22 70 48 -30 31  0 32 21 45 17 42 27 52 80 66 0 52 25  27 81 67 54 39 43 18 10 -66 53 61 -67 21 66 -37 23 24 10 56 84 75  44 38 56 47 35  36  15 54 0 0 14 53 -52 16 45 53 -36 -58 46 34 44  49 67 64 36 52 54 41 46 38 4 44 77 45  79 61 42 40 34 -41 41 64  39 81 50 27 -4 43 47 28 59 54 27 6 45 64 45 58 52 50 0 68  4 60 37 42 75 50 48 57 44  30 42 49 53 38 16 38 87 44 26 50 56 23 62 65 37 49 66 75 32 68 -7 64 14 70 23  33 76 73 45 60 59 46 50 42  72 76  49 82 68  30 46  12 81 32 89 67 -42 58 46 54 74 65 -32 62 -56 70  -22  17 71 62 54 18 261 73 44 47  56 29 64 79 56 -37 71 -31  62 60 72 79 13 18 64 76 58 64 41 17 73  71 36 65 43   22 86 74 65 49 29 56 67 36  76 -51  -17 28 22 61 84 -51 -76 42 53 68 12 66 54 27 48 52 63 37 -36 -1 88 52   61 46 81 70 41 -4 55 82 42   0 66 48 48 63 30 54 70 26 47 81  79  -41  59 -38 -77 63 84 45 10 83 53  -36 70 46 43 26 32 59 58 35 47 0 52 89  -68 50 75 30 52 54 51 43 22 73 21  64 37 46 87 44 62 49 -15 -3 30 42 50 -9 -38 0 53 52 -37 70 78  -40  46 53 46 22  53 74 76 54 78  41  54 3 -64 63 31 62 35 58 76 62 0 52 60 53 68 64 7  32   80 266 103 54  54 68 -6 79 -8 70 50 68 14 64 63 47 48 57 72 -57 -32 44  0 71  61 10 -86 23  0 29 43 53 44 43 41 39 11 -7   53 65 71 63 35 43 88 24 72 98 52 19 75 17 39 64 84 63 60 67 62 45 20 -55 19 56 61 44 0 -42  27 35 54 34 45 37 43 54 67 54 32 70   45 15 23 62 58 67 20 45 54  31 56 36 15 84 -14 63 46 73 48 151 73 4 9 -44 42 34 50 32 53 62 24 11 46 19 29 -31 58 81 65 49 63 70 66 23 36 53 136 73 107 -35 55 -23 73 65 66 48 37 26 -45 45 49 60 -2 59 0 41 42 -2 74 73 32 39 47 -58 -43 55 82 41 34 74 25 68 -39 29 68 54 58 70 76 50 7 -34 54 56 73 40 71 46 91 54 30 20 0 75 46 63 67 26 41 58 28 61 -39  48 74 21 39 73  42 73 22  6 32 68 72 46 46 -33 73 23 71 -38 45 53 46 48 60 51 0 16 42 69 -41 85 62 73 54 21 69  77 57 18 30 261  64 63 35 -30 43 7 -54 0 72 -65 43 40 117 0 26 60 76 59    63 66 -23 61 37 222 76 44 70 62 64 56 79 64 61 75  0 67 70 36 60 37 41 38 50 85 54 33 45 48 40 45   61 47 52 52 48 5 14 58 46 -19 47 35 46 64 64 42 80 64 27 258  -65 73 77  16 49  13  45 0 18 80   43 56  21 41 53 39 48 1 53 77 0  68 25  17 49 59 -42 0 79 70 39 38 49 50 67  71 62  -3 62 35   77  43  37 87 -36  66 76 27  1 0 -44 64 33 35 46 84 -6 71 64 46 46 -19 47 2 77 33 39 31 52 21 59 50 77 -18 2 28 0  18 67 65 49 68 83 62 80 63 72 42  -46 10 62 -33 48 -46 29 42 56 23 0 46 -39 59 -33 70 44  269 43 72 57  73 54 0 94 59 48 19 49 -31    81 0 74 -15 50 51 -46 62 42 262   48 30 34 47 35 70 25 61 38 0 55 41 -34 -51 57 61 87 50 79 29 -62 65 69 46 36 69 -39 13 76  0 49 44 69 10 69 48 76 0 68 32 43  70 79 46  2 79 13  48 -41 8 -38  84 48 72 39 60 53 66 36 78 43 -36 31 68 83 91 60 78 15 253 0 43 8 76 -38 38 68  6 23 49 51 42 23 75 -39  22 -85 -50 264 56 11 40 112  57 45 46 60  77 52   4 50 52 79 46 52 21  80 62 49 69 32   29 -13 30 59 33 67 57 20 23 61 44 64 34 -46 -38 -16 43 72 75 52 267 36 52 76 78 21 66 84 -21 -40 9 26 69 32 0 76 35 40  69 57 7 -50 30  0 75 33 59  56 -53 74 71 84  66 74 25   75 62  62 38  40 38  8 68  55 -5 71 63 -3 27 71 24  58  62 48 77 -10  0 49 36 79 83 73  79  52  67 79  53 3 259 45 65 3  84 34 50 42  106 32 62 -50 18 4  38 74 0 -86 81 26 69 75  31 57 65 34 53 55 60 42 63 27 -72  43 63 61 49  73 16 41 54  56 50 74 44 73 0 42 48 40 54 77 29 54 -28 67 66  -12 64 0 60 65 43 72 56 68  14 13  53 -61 58 0 53 20 65 45 56 47 43 32 20 54 40 59 -80  49  72 52 60 51  74 49 73 3 48 -21 62   39 -60 -5  50 12 44 81 -11 53    77  53 73 81  61  26 79 78 45 55  5 38 90 72 -87 62 52  83 55 43 47 74 -78 76 23  62 134 15 87  120 37 73 2 -39 34  75 46 15  72 61 -23 77 70 70 52  79 -4  49 64 63   39  68  59 68 60  41 73 46 68 -4 53 -25 78 83 49 41 6  74 55 15 49 23 70   32 67 241 260 62 33 29 -50 42 48 67  32 72 22 8 70 26 64  73 -62 43 -24  33 28   60 51 0 42 47 24 0 47 43 68 57  53 68 79  55 57  -85 46 63  42   54  62 25 50   62 14 65 56 44 -45  68 28  37 67  62 74 59 32 47 -45 68 0  -84 51 50  11
2 -60 31 -63 38 -6 -86 18 -60 79 -74 78 43 -28 -49 89 25 35 11 25 -40 30 73 10 41 61 59 -51 57 -32 43 58 -45 17 77 -15 67 69 59 50 67 39 43 -12 3 53 1 -48 66 10 71 70 76 31 49 22 -4 0 70 45 52 258 52 30 -83 52 -42 -60 9 85 -63 -30 13 94 8 -31 -41 38 51 93 22 75 31 53 81 26 257 23 52 85 15 -39 -11 83 39 60 68 -46 63 -43 32 58 -18 98 22 149 35 47 -31 78 65 82 57 -2 52 -33 -84 92 57 69 -56 1 -32 56 -40 77 11 -35 -20 213 14 51 2 65 63 52 -4 42 -5 46 61 73 42 67 69 23 58 59 68 76 -46 12 75 84 47 -69 36 -38 -4 41 86 -50 99 58 79 -46 2 75 52 93 128 1 64 87 68 -43 19 -51 99 -68 87 -7 74 1 -64 -36 29 52 66 -26 60 77 44 79 249 -17 17 40 16 -9 -48 -39 113 -57 -43 49 1 -23 44 57 112 -4 32 79 220 -18 -9 2 -41 0 21 160 26 -36 41 67 24 27 141 -23 110 21 34 54 55 -39 20 98 -63 52 96 46 -33 33 58 37 63 66 -12 52 15 257 -64 -60 -33 17 66 -30 -76 136 57 95 12 -66 47 50 -79 -10 111 11 56 7 21 90 85 38 73 95 130 65 105 0 -27 46 39 77 -25 82 51 81 62 -37 -80 -47 65 45 -30 -12 56 57 94 14 17 -10 20 39 -12 -12 -10 6 61 90 -5 69 32 44 41 103 55 68 -21 -30 -3 25 -25 80 32 -2 53 92 88 71 33 57 -7 88 -45 -83 76 29 102 47 -12 73 52 22 3 49 -58 159 41 57 1 -43 -37 61 -48 31 51 -38 -46 12 70 61 96 34 57 57 -57 59 -46 -43 63 16 51 9 -32 35 -22 46 18 58 61 68 56 4 62 -24 -5 6 20 -14 65 2 3 -5 51 -20 -45 -51 -8 107 46 3 13 -74 -5 -67 43 33 82 14 -29 43 55 111 -85 105 60 0 53 13 -87 45 -61 -45 -46 17 -84 19 -45 67 55 -47 19 54 -24 -57 56 66 50 74 68 4 -53 62 3 243 -15 27 50 -26 35 9 -19 63 18 49 33 67 -42 97 92 -4 66 65 49 51 98 120 42 47 70 100 92 53 -31 39 21 68 110 59 -69 75 -42 44 44 -52 -23 22 5 71 80 0 -12 -54 6 71 52 -42 27 104 178 51 -21 24 93 66 57 94 62 63 20 10 12 45 62 62 16 71 5 17 33 -48 -60 -83 61 90 47 25 57 93 2 -5 135 76 61 94 -81 10 59 -80 86 54 16 5 -77 58 95 36 -10 18 57 16 48 -14 54 -24 41 -27 66 28 37 -47 77 -46 -3 77 -11 55 37 30 10 40 37 -47 3 15 40 40 21 62 24 41 2 114 42 11 -85 62 64 69 49 65 2 44 97 22 -35 70 108 63 -67 46 -41 32 44 90 58 -21 52 -10 53 110 -84 -28 -17 39 -56 104 -60 110 -11 -40 -81 -12 31 68 68 59 49 99 34 -10 36 30 43 56 48 89 53 -39 -15 31 -41 -76 16 -77 -1 -35 90 -76 -24 60 94 56 61 35 31 19 -8 9 -29 53 53 69 72 9 55 -31 15 -9 55 2 -21 60 243 42 89 69 -61 70 -33 -24 56 49 247 18 -17 18 -63 34 76 5 14 23 44 -41 1 -53 -64 19 123 16 16 81 107 137 30 136 78 90 2 -62 -35 -69 68 -53 58 -53 62 54 8 90 -53 12 83 -78 92 5 -11 51 68 38 -17 -1 43 56 -20 -35 43 51 64 28 55 7 -78 26 -64 30 25 -45 60 59 -20 -73 55 168 42 24 -71 15 26 -8 64 -63 -23 37 -72 -1 -62 96 -49 90 -8 -51 -19 92 -44 36 -9 130 75 -65 19 90 1 74 -4 -30 13 83 -42 13 49 17 -2 76 -45 54 6 -76 -55 -24 83 98 -49 -81 18 107 49 34 49 66 18 -7 40 81 -15 2 107 118 -74 -37 -31 111 -26 88 -8 55 -43 44 -44 -48 27 87 -85 75 26 -85 -59 91 70 91 95 65 -12 6 -47 -16 43 105 60 175 58 73 92 19 -72 -22 -14 -80 -43 140 -16 78 6 5 48 33 -6 41 99 69 34 14 -15 22 64 -5 91 -73 -15 29 -22 -46 -10 -56 254 40 -8 -36 -16 49 -2 62 86 91 60 -68 -66 18 66 -35 84 -22 22 83 -37 17 16 58 4 57 177 -67 0 -44 46 51 11 51 -50 33 -64 13 17 16 -55 1 239 -51 33 19 24 -78 54 -11 32 -17 -45 67 -49 106 -54 268 -77 75 52 5 3 61 -43 26 9 36 5 5 50 -47 -5 -47 112 -83 43 2 172 38 -30 78 5 2 -19 99 0 35 55 20 74 96 114 90 -17 101 63 47 -28 -38 78 113 -84 54 17 -20 0 83 3 65 75 -3 -23 43 68 26 -71 90 23 -38 89 115 44 54 -71 8 55 -42 46 65 -52 51 -34 18 43 118 44 114 77 -1 -87 209 -39 78 49 100 76 -32 44 -43 -12 35 0 7 54 51 79 -41 264 -3 21 -8 62 46 -30 -38 -28 -70 7 28 -30 80 75 21 5 45 5 115 16 -33 81 55 29 -63 259 -24 -55 128 54 105 -7 3 74 -16 67 -37 68 88 91 19 47 29 197 64 60 0 -9 62 18 28 133 56 10 72 -64 -64 70 -40 7 37 46 100 -5 36 41 -32 38 -5 65 58 20 51 33 87 62 15 -70 35 51 72 5 93 74 33 4 14 48 69 -65 19 1 59 42 -82 71 47 57 11 57 9 10 110 119 -66 41 50 28 53 63 143 59 47 92 -11 20 52 -43 68 28 -7 20 8 -18 56 63 81 64 9 265 4 1 -77 -50 -73 48 -43 -5 12 13 50 32 41 72 33 6 -64 16 -38 202 -31 -53 62 -1 58 -84 108 14 84 87 35 34 -22 55 82 9 -52 53 47 -49 118 55 32 -20 35 44 91 86 30 -28 30 35 -39 76 35 60 12 32 64 60 -9 62 46 54 51 66 59 37 28 -24 38 14 20 -34 -47 -42 -63 72 -1 39 -52 -6 73 31 -42 -7 75 91 -54 54 31 -63 -40 17 -50 35 38 98 18 -42 57 148 68 63 58 24 -21 7 56 52 12 89 -76 5 40 91 -37 2 32 80 28 -41 -28 6 48 60 -45 58 19 22 8 21 111 -44 56 59 7 -41 -64 118 77 65 -35 71 48 96 22 -24 -12 59 -7 7 92 51 111 41 -8 -10 -57 48 -66 25 -56 -85 16 13 -17 3 82 56 14 92 28 -63 77 53 38 6 97 76 -64 -6 87 16 59 47 -50 54 64 57 72 9 -41 49 83 -60 96 -7 38 -72 0 -81 44 -43 66 61 71 91 0 -35 36 13 53 82 8 27 66 -26 89 -81 17 -6 49 40 56 0 34 94 75 88 72 7 49 268 58 55 34 -29 49 -72 -28 64 43 60 90 30 -44 -35 98 86 -44 -44 72 -21 19 39 58 95 24 -66 -25 71 52 68 77 -18 51 6 -9 -1 36 34 74 75 -34 64 53 72 -38 57 -32 -13 95 -14 86 96 43 -50 -45 66 -7 15 -36 20 81 -2 33 55 51 30 -27 65 69 11 96 -12 -50 -31 37 123 38 98 19 14 25 -11 35 1 49 24 24 58 103 129 -28 -83 12 45 -74 2 55 106 12 76 -33 46 61 81 -18 53 30 79 146 33 96 60 11 -55 72 66 4 -5 94 7 18 -30 46 170 44 66 34 -28 35 37 -12 18 27 91 125 59 65 -78 -15 35 6 -61 82 52 57 30 -72 89 22 71 46 41 61 -4 62 21 70 16 15 80 -2 62 -42 80 -7 -35 -7 54 95 -39 -46 0 9 51 -33 -34 58 -8 102 31 -20 77 7 19 77 -54 -19 12 31 -78 10 -34 2 92 52 59 -54 90 46 10 74 22 51 -34 -82 24 -31 65 0 72 66 92 22 79 -23 -72 -54 52 41 73 62 53 -64 47 90 60 57 11 36 70 43 55 39 38 -40 49 -61 -10 -10 98 77 -45 146 59 99 -36 48 74 19 64 -31 66 -45 73 -26 18 -31 153 59 64 -33 111 -35 8 -18 -43 43 34 23 -41 -38 -48 60 -6 -9 -44 83 -54 31 -34 82 -31 79 -83 16 95 94 100 100 10 -82 42 -59 -19 -2 100 42 4 27 -28 98 -65 -10 20 38 -14 61 8 220 41 -9 91 89 -28 5 40 -75 70 -40 96 12 -42 57 -27 50 64 92 97 16 75 -37 65 82 70 -43 37 67 17 -41 53 47 -24 8 142 103 -43 22 51 -72 -53 55 65 -13 43 62 -8 2 -29 -44 47 67 -76 53 -77 10 84 -75 31 7 52 11 24 79 74 9 51 43 47 5 -34 -9 -1 -2 113 64 60 5 66 1 21 98 42 52 64 135 249 97 59 19 -51 76 70 78 108 88 30 113 126 63 81 81 77 -23 80 -44 68 59 47 40 -52 -22 94 -82 17 29 16 -6 -16 -21 -10 71 78 22 65 2 61 26 101 -70 83 92 49 36 31 -30 -7 53 34 7 82 99 142 79 -20 51 90 58 76 29 61 -59 64 41 62 26 -22 -73 91 58 67 108 65 61 11 79 6 64 68 -66 35 78 0 67 23 62 10 16 28 -64 -47 46 129 93 -43 9 -37 13 -55 -12 52 26 34 46 49 62 37 -11 26 -33 6 -35 9 -57 52 32 27 62 -60 43 24 60 16 -34 31 87 122 -85 68 -47 60 -30 12 78 64 -14 100 82 47 48 58 -28 12 61 17 6 64 93 81 94 38 10 80 95 -31 59 6 10 17 -14 52 83 39 -38 -47 98 -41 -22 122 111 53 10 -5 76 45 57 -36 97 23 80 71 126 -16 92 89 93 114 86 -4 15 -19 -44 82 58 70 22 91 57 56 28 101 -70 38 55 7 -39 -41 47 -57 21 -24 -59 -42 -9 105 31 52 71 1 -65 -9 17 60 32 67 31 77 53 -10 51 12 33 53 2 -57 46 16 52 -11 -16 -3 65 35 -2 -13 29 23 63 72 141 12 -62 82 36 59 -40 86 113 5 21 -72 37 83 -15 37 77 119 -27 -12 6 42 98 11 -2 74 60 -77 18 93 -29 33 16 38 -35 -9 -72 -4 -16 70 85 71 58 -12 16 61 -70 71 41 62 68 50 10 91 57 84 19 69 60 43 67 63 31 90 74 15 -41 76 32 72 5 -28 22 -10 79 7 83 60 42 62 -41 -61 -4 -29 33 -38 40 20 -79 34 61 53 -24 30 -77 17 99 53 -8 61 211 70 21 35 -23 22 69 73 40 65 114 -44 74 25 -35 266 24 55 -30 90 -44 254 29 12 35 80 89 71 47 90 73 77 56 -67 15 27 55 29 34 76 -2 86 8 -11 50 87 -77 94 -60 -18 -69 58 -14 79 96 51 49 -75 89 88 36 54 65 177 66 34 28 18 47 111 37 20 -30 58 85 15 -74 -52 94 7 27 1 47 15 45 19 4 36 -46 45 61 82 83 73 34 -2 41 -37 58 66 3 91 -70 15 32 -50 -21 60 7 37 51 -33 5 52 51 46 46 51 104 74 -27 43 -21 37 8 18 69 27 0 -85 -38 -19 -26 25 69 46 56 37 -35 49 76 39 48 44 53 -66 9 51 21 76 65 36 75 5 92 48 68 47 20 -19 47 86 -21 60 106 -39 58 -54 -34 -12 90 -37 139 27 24 38 -74 76 33 -15 52 -21 -35 -61 83 -35 72 51 79 14 91 14 41 82 91 90 -82 46 9 50 -21 48 120 -67 78 -3 93 35 52 -15 81 31 -55 -45 68 67 -28 23 -57 -27 50 -63 27 61 34 -5 40 60 7 76 -15 254 49 63 30 63 4 -53 12 53 65 -71 138 -74 0 73 58 -13 32 -4 15 31 52 93 -57 24 -39 68 -63 98 91 103 118 68 110 79 50 69 83 98 98 73 69 63 2 -29 68 91 63 -22 -70 -8 93 -52 -74 81 51 -20 79 102 -52 22 40 55 23 86 -48 14 -81 -37 37 41 67 83 20 72 68 -47 -3 87 37 9 -26 42 55 1 20 31 -2 63 36 74 44 -1 -40 46 58 55 54 50 -39 107 -22 -62 62 47 88 67 -41 58 50 12 -19 59 59 -38 35 78 -78 44 -16 48 -46 -17 56 38 8 46 48 10 77 71 -37 4 15 95 53 -1 34 43 97 -35 11 -44 39 4 48 70 99 69 -14 43 -1 19 -39 74 87 36 35 -15 -36 -10 -58 270 38 69 -53 64 67 134 96 13 18 60 16 39 78 25 49 101 111 22 -51 52 29 87 114 32 -5 15 38 75 -8 24 55 67 -41 17 40 58 70 33 25 37 53 -46 93 52 36 -43 94 -44 -70 64 5 30 23 -34 -5 -11 39 -8 64 54 -15 259 78 -51 78 84 -29 -56 13 -2 8 70 33 59 64 62 63 53 75 28 70 113 88 23 42 74 -66 77 258 93 24 68 43 20 14 -5 -9 20 -66 94 25 80 35 94 71 -17 76 35 81 42 5 25 -2 45 -13 49 38 36 76 28 -59 42 32 -41 61 27 -2 46 86 -44 49 28 -31 73 38 51 117 42 -13 70 60 72 31 80 -43 51 74 77 27 -63 3 -2 -16 76 91 57 33 56 -29 42 70 -41 54 4 48 126 31 12 -71 -2 41 111 64 -7 0 -9 72 71 27 -44 51 70 17 -53 78 42 41 64 97 80 19 34 -39 -8 36 0 18 51 -18 20 38 -56 -48 28 2 -74 42 44 73 55 40 52 35 1 90 132 40 102 121 80 60 38 -71 -45 1 -2 43 71 -35 -39 -37 40 81 45 16 18 70 77 -35 -16 -83 68 27 -20 40 -39 -18 83 -32 47 43 -5 -6 -23 71 84 89 -63 60 43 74 52 -1 35 31 53 47 -81 216 66 -10 52 7 -37 73 14 30 82 -63 61 38 39 -1 -82 -69 25 9 -40 44 31 -5 243 18 68 53 -42 4 34 92 -15 74 50 -1 35 71 90 -141 86 96 8 38 34 -31 -49 68 -40 50 31 7 92 -35 -34 30 3 67 69 99 -18 -18 107 68 40 3 -69 -58 44 -8 83 33 90 80 55 -37 73 -36 18 69 91 17 87 78 -1 59 15 -2 -65 -26 18 25 3 256 40 6 23 5 46 99 -24 85 22 53 8 53 1 -27 165 3 45 39 64 99 114 -2 101 22 3 -17 12 99 -7 69 55 75 4 46 11 111 66 -36 -82 80 70 27 -34 -27 -2 17 70 -61 17 19 -1 -13 6 41 29 -53 34 77 98 68 -29 27 92 2 94 46 77 86 67 -18 32 55 -33 0 30 -66 60 35 109 44 25 41 70 20 -73 110 -16 94 -48 76 26 20 3 46 58 60 -55 35 64 75 4 81 22 101 54 9 57 129 115 -29 37 12 -4 29 -39 30 52 -44 22 47 -47 18 116 -14 101 65 72 69 83 50 -74 -6 66 15 25 67 -37 58 45 -37 -27 63 56 72 49 75 47 52 66 18 -36 78 100 266 17 55 15 60 -22 30 53 31 76 63 49 29 39 101 93 90 34 91 21 -57 64 19 5 -1 -5 30 73 102 0 -2 94 77 66 76 40 67 63 -38 -63 51 113 7 -60 84 90 -42 35 178 87 64 48 60 46 73 -8 -52 3 86 -22 17 28 81 34 72 -82 100 86 51 104 12 58 22 76 26 59 60 45 56 -27 37 172 24 251 -33 -2 -5 62 6 -43 31 -17 15 51 31 85 -27 -18 17 4 -54 38 103 96 90 -44 32 -79 99 39 48 -72 -59 38 -41 30 70 88 45 35 68 62 67 36 58 45 52 8 4 43 68 38 3 143 61 55 34 40 -21 40 -58 60 30 -39 92 74 39 40 32 -47 -50 27 4 97 58 143 39 -17 -9 55 64 45 90 80 49 24 88 4 -34 -37 52 -29 95 20 33 -64 14 66 77 10 92 51 -36 24 267 0 -20 75 16 -58 82 58 -14 112 -7 43 -9 60 -15 10 7 131 89 30 114 48 4 79 -26 12 72 -5 10 67 1 114 -7 19 23 -20 -9 -41 40 239 58 15 -6 24 53 47 -42 63 -16 67 83 24 95 79 31 -35 55 -85 14 59 -78 -3 87 29 -42 -10 92 81 -82 7 -30 62 113 39 -46 11 -2 38 7 -8 82 246 -69 17 62 -21 45 23 79 60 49 41 61 101 -56 12 10 48 14 221 -9 -9 27 1 83 33 -33 11 95 -5 44 8 -29 41 -67 81 -62 101 61 -25 -6 -64 -16 -36 36 -51 12 62 71 -25 88 20 62 -68 -34 -9 26 49 134 80 98 -1 -63 22 266 73 98 89 57 -10 34 -29 48 15 65 9 30 -1 31 47 -52 86 -40 104 54 76 -40 34 -38 82 49 83 64 52 -71 -44 53 96 88 -7 84 44 -30 4 -61 54 64 14 40 23 57 0 6 65 0 68 -29 43 -81 4 -11 40 -26 62 19 27 -70 86 4 -17 -50 23 27 46 44 20 -10 -42 27 70 -4 -17 11 28 72 99 -60 -27 44 60 19 71 -41 44 46 51 29 67 97 30 18 14 90 18 -31 -41 84 48 -30 228 84 -3 -32 58 35 58 44 62 12 8 7 61 -74 75 84 42 -33 44 12 -31 -55 37 62 70 233 62 80 -41 -30 8 -8 -66 35 -9 13 109 -29 83 -63 78 24 -26 -9 36 28 62 14 -19 56 48 -65 -5 95 65 92 -17 65 38 64 23 38 29 57 6 43 64 -76 -2 37 -26 21 8 47 -21 -20 72 67 -34 62 -20 72 2 43 58 -8 -55 28 -19 -34 0 -31 -34 43 31 95 90 30 45 -58 18 30 10 29 43 66 -27 -7 -43 64 -14 8 -49 254 27 -24 64 34 104 7 27 94 55 63 -69 33 71 9 29 -71 -25 89 -30 -73 93 79 14 25 89 -37 2 13 33 -16 12 20 93 -78 28 103 9 -6 69 75 87 30 105 -72 -1 93 17 35 78 94 6 0 -44 76 53 21 -1 8 23 101 69 -57 71 -51 68 -7 44 18 42 4 -28 -11 -45 45 -18 57 94 27 85 -24 -58 53 -43 -40 102 61 -33 50 -1 59 42 91 65 20 60 -41 27 17 -16 12 19 25 66 -52 -17 48 -8 53 -65 3 46 86 101 -38 -22 26 5 41 -6 72 25 13 102 69 85 26 49 8 8 -71 -84 -52 7 95 -20 69 95 -9 23 -16 -65 74 11 40 -2 -45 41 86 115 43 74 50 52 -69 74 -54 51 106 84 99 -31 64 74 19 12 36 43 17 63 99 -24 -55 21 100 -41 20 49 54 63 -3 -39 -12 -48 -13 -6 10 102 -51 2 22 -75 -63 6 3 79 40 92 46 48 8 58 78 52 65 -32 59 -43 85 75 53 -29 51 -8 85 83 14 52 46 16 69 83 83 -26 39 74 59 -46 2 -61 52 -12 79 31 88 10 -32 10 30 -13 205 5 3 26 6 -46 21 -34 -5 22 -34 65 26 81 7 -64 25 -11 18 58 48 111 64 41 60 -18 43 36 29 6 57 72 51 55 -16 -58 228 13 40 68 50 36 51 73 12 52 127 6 75 -28 16 81 51 61 19 -2 -76 29 10 73 85 121 -59 38 57 104 39 30 139 -5 -25 8 95 -20 71 64 -33 36 9 96 63 6 -55 17 76 114 91 70 -58 8 21 22 -49 80 24 85 76 -59 34 96 73 37 142 2 1 62 20 64 -52 55 -79 65 21 5 80 -19 46 90 37 27 24 -51 -44 62 41 -70 88 7 -11 8 -69 10 64 1 23 66 -65 32 -29 76 99 52 6 -2 94 45 88 99 34 -28 35 23 -61 43 61 -46 132 14 98 16 -64 40 -51 101 51 138 67 74 5 8 -5 69 32 35 25 1 57 6 31 96 1 32 73 6 29 13 -50 41 42 22 51 80 -39 51 98 27 24 34 28 15 63 78 -11 -75 -10 62 10 -29 -9 53 -53 64 236 33 19 -30 42 63 0 15 4 15 13 57 -37 70 86 23 -43 101 87 31 66 29 83 8 -7 -41 25 37 -17 75 29 68 98 93 -22 93 -6 -54 86 -57 -64 90 30 78 52 55 81 -86 -6 91 -31 57 92 84 57 70 74 -9 -32 -6 69 -24 67 72 -32 -37 -5 -81 1 41 230 20 3 53 77 -25 36 57 -70 28 69 104 45 54 133 77 31 45 90 39 82 51 -62 267 -8 92 66 31 -70 -30 -80 42 -1 -30 32 -75 100 7 49 92 85 -49 40 96 -2 52 15 49 -45 -42 49 69 -10 51 84 47 77 34 -55 39 57 50 30 59 -13 -45 18 -31 26 73 67 18 63 -80 77 27 88 -48 -86 -81 27 -7 91 12 -43 72 47 89 20 -10 61 -48 40 -80 3 74 27 65 58 -63 79 97 24 32 42 -47 11 -5 51 -7 20 64 -28 -26 81 58 -81 92 -10 16 58 98 27 50 47 46 6 38 -19 79 -73 43 31 44 82 -53 7 25 9 -24 -15 -41 67 -35 22 79 -14 59 -9 61 60 26 3 28 -45 52 106 48 -67 35 92 45 0 110 101 39 -73 25 51 4 94 49 47 96 5 -31 91 63 -12 91 -39 5 25 27 -2 181 195 46 68 77 -12 9 54 43 -38 -8 -31 59 103 44 97 89 76 91 -54 6 -76 171 46 27 14 28 3 63 75 87 67 -2 124 24 35 -67 29 146 14 -66 33 87 -61 -37 100 48 74 -44 73 26 -4 6 -37 54 89 -21 -76 7 -31 40 88 93 -5 34 104 22 4 38 18 72 26 -36 126 110 -34 -65 57 57 76 -9 61 42 47 63 -5 -73 70 6 52 42 78 50 48 42 27 2 -25 81 -78 -43 16 96 72 25 55 97 -47 100 57 -53 69 4 28 65 -29 89 63 104 241 -1 29 24 19 4 -37 68 48 -65 -43 204 70 28 -19 45 41 1 3 263 99 -3 87 -13 -46 38 9 -6 -5 34 42 -4 44 47 61 -60 43 -15 -46 7 86 72 34 16 54 49 78 69 -9 65 185 -1 76 266 57 54 82 4 69 -29 4 16 56 -9 51 62 38 10 88 31 -5 58 57 -35 92 9 95 21 21 27 -6 91 59 59 12 60 -47 23 115 3 14 -30 -41 17 -61 105 35 96 88 -3 13 11 26 9 98 -42 -29 97 54 71 -9 28 -1 -40 74 77 15 -40 54 39 41 -16 40 -68 -3 45 -75 23 92 49 160 25 66 -30 83 64 48 23 18 26 107 108 -55 46 -33 57 -28 -42 -36 25 50 45 79 97 -43 -37 267 -38 101 61 -19 83 24 -39 87 1 60 75 61 -11 56 -4 -17 93 77 65 37 6 55 35 29 -63 86 12 60 -65 -8 15 -22 8 -72 43 67 80 78 -40 96 3 40 -32 9 90 89 57 -65 24 19 31 -58 -59 77 41 92 48 60 27 63 70 -24 26 -18 11 -22 4 -35 -12 16 22 41 41 84 64 0 44 41 80 40 104 11 28 41 100 -50 71 51 56 45 59 88 43 -72 14 87 59 16 44 -7 69 34 85 -34 -14 57 46 53 12 65 36 0 20 -30 -13 18 104 48 -84 52 -44 78 101 -32 69 -60 30 32 -64 10 -10 -46 96 31 60 -3 -5 -46 80 85 61 43 68 67 63 84 0 75 -21 10 -47 76 91 36 67 62 116 51 -32 -16 -34 157 13 58 -24 -77 108 38 38 -6 -51 -7 -48 63 77 64 -39 20 75 -67 82 24 -16 -8 78 20 -1 60 -7 -21 96 5 88 -57 26 -10 95 71 55 78 59 31 61 108 -34 49 64 44 244 16 41 20 37 57 70 -24 41 -59 -72 44 36 74 30 11 39 35 74 56 76 57 22 24 66 -35 38 -22 60 -36 77 41 18 103 -75 86 111 -59 9 -18 19 35 -41 57 19 -49 4 -4 52 71 0 50 61 -5 60 61 65 57 46 28 139 18 54 -53 36 -74 6 69 59 53 13 119 79 111 -47 176 66 27 104 -38 21 -46 55 95 48 79 -32 58 34 -67 22 61 38 13 6 -89 60 60 45 17 47 -80 3 28 78 15 -77 -39 -65 31 48 49 -3 27 -15 19 63 31 6 61 65 118 79 24 55 -43 51 -6 71 -34 76 65 127 22 81 -38 18 4 39 94 102 93 22 57 -45 96 74 90 53 22 75 -13 -29 52 71 49 263 -14 16 69 90 37 -4 33 39 48 84 -21 -1 98 48 4 147 91 74 7 55 51 -69 -47 92 38 228 85 11 76 19 -49 72 53 43 -30 57 103 48 255 18 0 74 73 88 49 96 88 65 69 -78 -70 -4 39 61 54 251 16 -28 -44 16 -35 -60 74 -66 11 56 47 48 42 62 25 67 61 40 40 44 -32 5 225 79 -78 57 39 78 71 1 31 -46 -33 250 232 -7 45 99 55 -14 -22 79 109 -23 -32 79 55 51 53 80 -3 68 40 73 49 27 -39 96 -18 64 -31 -41 57 -7 -59 -71 72 88 146 65 -9 -33 64 21 85 59 28 43 100 -21 67 79 12 1 8 -9 166 -63 105 61 85 14 81 78 85 21 66 92 -35 12 47 101 -23 -20 16 126 -2 -75 -63 7 -42 31 43 43 83 -83 35 170 124 26 47 51 78 -36 17 -41 142 54 244 51 20 131 88 84 66 86 93 -5 79 92 69 -5 -23 79 97 7 21 52 84 4 138 68 19 69 -28 257 130 75 68 68 -54 74 -46 40 -56 39 47 31 70 -3 35 32 -49 78 16 51 -73 -86 255 44 70 24 90 -45 55 44 4 103 35 -41 150 29 -67 0 78 17 -13 60 61 63 48 60 -2 -58 -37 153 109 -53 -1 19 -57 24 79 -5 73 -40 56 34 27 -27 57 8 -15 10 19 2 -45 96 54 75 41 -64 4 36 21 35 62 -23 -72 92 -36 80 39 133 93 105 76 93 83 -9 83 9 60 -30 -18 67 29 113 -3 61 -45 43 -38 -30 31 92 -38 95 116 76 4 63 38 83 39 51 -10 153 19 49 76 -60 -66 56 51 70 44 4 -33 4 -31 -39 86 75 1 -63 -16 57 -46 41 -33 -32 16 -43 25 0 106 -34 93 13 -48 73 -15 35 22 29 58 -26 32 27 73 35 88 -64 64 -78 52 33 48 96 52 43 -14 18 107 83 103 191 74 91 -69 79 85 -29 34 22 91 96 9 -17 -13 30 48 1 -60 -12 73 67 17 86 -1 93 35 46 63 35 33 28 35 27 -20 22 -36 -87 -51 -35 70 59 18 -49 48 -34 18 16 -12 -79 91 82 129 56 90 -27 77 60 23 -28 90 91 11 93 16 81 -21 -51 -7 -85 16 -9 96 90 86 33 91 92 68 45 59 -45 71 14 -14 14 18 83 57 -85 79 -38 6 78 71 -4 93 61 -1 161 61 94 -5 54 41 58 -17 76 34 67 -51 95 51 100 9 15 38 -4 55 70 65 61 61 55 85 9 75 -67 135 109 56 22 71 42 35 22 51 -14 -38 78 45 35 -51 62 22 104 54 54 -47 -2 168 -5 -12 -9 12 113 62 55 -56 75 58 63 -36 -70 66 64 6 25 70 10 32 -18 -1 69 25 80 24 6 78 90 84 -25 -2 -25 122 60 -83 51 132 10 73 64 37 -37 60 62 26 47 34 11 94 21 -27 86 3 85 92 65 36 54 -84 67 28 -11 65 -25 22 110 -32 11 33 16 -48 65 69 94 13 -3 -31 162 -32 9 74 5 46 61 -73 66 33 -31 30 39 -31 32 51 92 -81 -13 -27 54 7 49 44 19 91 33 -16 41 80 93 -26 55 -59 -9 66 37 34 53 41 36 31 9 34 84 24 60 62 38 59 -50 -19 6 -16 43 139 -72 -2 63 41 -61 58 30 41 61 15 55 58 -16 70 39 44 100 190 69 115 -18 72 97 -27 -36 66 -7 79 40 12 24 -23 59 49 83 64 91 -23 -24 14 36 -11 65 75 -32 45 -48 40 63 50 -16 -35 9 65 -28 0 43 6 -12 123 -9 -25 92 -74 -24 51 35 53 87 28 121 -31 -33 47 -32 -71 -21 8 75 66 87 47 -25 -27 -39 -38 73 63 -49 8 72 13 44 39 -31 40 53 -20 59 37 -62 51 92 87 54 59 73 35 8 21 24 16 -28 34 77 135 90 -28 -7 20 -45 20 40 58 -14 22 -66 -31 -51 137 33 60 84 28 73 22 32 -51 -47 -10 20 91 12 265 137 -27 -1 42 22 14 -61 -13 -77 64 -7 79 53 74 -35 50 -8 -83 80 -21 -6 -52 95 62 79 54 36 52 10 23 54 135 -40 28 71 -11 52 47 53 90 -75 34 104 15 32 28 29 64 63 0 66 66 45 34 65 -1 68 -6 74 128 62 96 40 -36 88 -46 53 -8 -18 96 -12 7 -24 58 -33 -59 15 59 -88 -24 -4 -21 50 4 56 54 -30 -13 66 100 -35 -7 59 42 29 32 115 91 22 58 -35 90 27 -76 65 -20 10 -24 63 108 -31 -82 77 72 97 38 70 -11 63 -11 71 27 -40 -7 7 24 73 89 -34 79 -55 18 -10 113 27 95 17 79 72 -2 80 59 53 49 -61 73 60 83 50 18 37 183 -56 -30 76 49 -30 -10 45 66 32 9 -79 19 8 45 -35 35 3 68 18 90 -8 -40 70 -45 82 -13 18 -46 -17 144 44 68 58 -7 19 3 39 21 -4 24 25 70 48 27 -37 -27 24 12 64 31 31 104 62 28 -31 -37 27 106 -62 12 68 41 -7 73 17 -75 67 11 -66 8 98 -10 62 -2 56 27 -4 67 -14 72 67 53 -66 4 54 14 70 94 30 -7 11 -67 46 77 45 120 -20 75 76 68 26 64 76 86 87 2 80 133 48 94 21 34 54 65 97 26 75 9 91 28 55 27 65 8 90 72 9 33 -40 12 -72 52 61 72 -57 77 53 44 -62 69 64 96 94 55 -4 47 5 100 15 16 -40 99 -48 -46 63 7 18 52 67 32 33 86 118 -7 -53 56 14 61 -33 84 52 30 40 30 110 -16 -31 73 -11 87 -29 112 68 57 23 3 44 52 53 45 10 -145 15 92 2 50 55 10 -24 -39 125 12 61 14 -35 73 93 21 79 12 68 31 5 14 -29 16 81 20 82 23 75 82 31 42 -12 68 37 68 -5 4 71 32 -32 68 67 25 6 -24 6 22 269 -38 35 75 -33 36 36 40 1 82 51 68 70 65 12 31 142 45 268 49 -35 -10 -5 -2 60 48 -44 10 -8 15 15 -15 74 72 132 41 68 214 -71 -3 96 53 -41 -30 -5 -17 122 82 109 16 0 31 259 -18 42 68 57 -20 158 80 -75 -34 38 -40 68 20 -8 50 73 61 14 26 98 -4 72 60 62 -4 90 33 137 31 45 10 39 33 -32 29 -80 -27 90 129 90 50 54 -77 -63 6 -3 92 43 52 90 -30 -16 20 -52 50 54 37 -24 -9 179 70 -28 -59 -4 93 84 157 -45 117 68 -28 -39 79 18 36 154 2 90 63 -57 75 17 64 32 30 63 29 -80 72 82 -30 3 63 28 2 90 -81 -18 -27 29 80 -12 28 -24 92 46 74 4 5 97 20 35 67 -46 -69 98 78 65 39 15 46 90 -60 104 104 18 -2 -24 44 63 71 60 34 14 70 24 2 78 15 -30 92 -15 -48 35 76 26 95 55 74 21 -3 75 -27 65 77 68 121 39 -45 94 -48 186 61 -71 70 -26 85 56 41 32 69 14 99 75 6 47 -36 -49 45 9 75 30 82 91 85 20 107 -31 51 40 0 21 63 76 83 -6 67 72 88 63 -79 64 5 97 -72 67 -1 -46 26 103 64 46 53 109 29 0 -54 -19 -76 36 170 12 -33 25 48 -12 59 51 -28 -49 38 33 68 43 66 76 -36 17 40 62 78 48 8 74 -78 -4 41 33 -31 -14 71 46 44 35 44 -65 -53 60 23 3 51 14 59 23 115 98 119 86 -5 -77 26 -8 68 77 87 36 -58 22 40 25 90 76 69 36 -42 -69 -39 55 35 61 57 91 49 -2 -17 80 55 68 -68 26 30 62 98 59 78 74 -44 66 73 -46 46 21 115 41 -44 86 14 -70 10 69 51 -52 29 41 56 19 90 -25 1 -84 71 -79 16 72 96 31 48 -9 110 32 -39 31 30 74 -84 53 78 78 88 31 14 43 43 100 -38 45 94 2 119 -6 209 72 12 -30 72 36 124 55 51 65 43 80 269 60 54 63 50 -9 64 90 90 42 0 25 135 243 27 79 41 76 92 28 69 44 -22 35 77 -18 89 80 -7 95 73 83 13 -52 -61 20 96 136 100 -22 72 90 68 -78 52 55 60 4 89 -39 76 96 60 10 43 58 64 -59 98 73 64 69 42 58 22 67 35 5 75 -37 44 127 4 10 68 47 53 66 -34 -63 83 23 88 -36 259 52 -37 -19 -3 -22 46 -43 51 240 -3 -35 80 -21 -15 74 4 55 -54 64 65 -43 57 97 49 -21 101 47 64 37 -43 80 73 61 -74 68 -18 -31 -6 43 26 8 37 60 -72 58 91 80 71 51 -49 -87 -22 4 -3 87 83 1 -69 93 33 27 90 88 85 42 -62 -33 34 -8 78 37 33 55 56 102 46 -43 -57 86 42 -80 53 -17 100 28 -1 50 6 38 10 80 16 -75 13 -36 -47 57 61 -8 -40 115 80 64 11 101 28 73 71 -34 15 35 51 -15 70 48 77 59 63 -72 -43 -9 166 103 127 -4 68 1 78 34 131 68 -56 35 42 68 71 55 -15 37 49 -25 44 6 2 18 59 -69 23 30 42 75 74 34 60 71 54 17 -84 11 27 79 92 12 -55 78 80 51 -31 84 37 49 33 89 111 92 -30 -64 65 81 36 -36 39 -81 11 64 -35 67 50 19 -44 -61 60 63 94 14 -67 67 55 268 21 9 10 31 -45 48 0 82 62 33 10 11 71 24 73 -47 84 22 40 -64 -28 27 38 -40 81 41 89 -52 61 69 78 70 21 62 70 -61 21 4 93 6 91 -77 74 18 101 46 134 70 0 -50 18 -27 56 -34 -43 122 24 -6 66 66 93 105 -30 62 69 71 -2 16 16 67 -14 5 1 78 -15 -60 62 49 74 -12 109 65 77 -8 -21 81 74 115 90 16 -64 224 67 -53 50 53 -6 52 65 68 85 150 -42 8 -2 -53 95 70 -2 -40 53 48 52 48 34 72 67 27 -16 64 8 55 258 6 61 77 -69 44 -27 -35 44 69 70 64 63 70 57 25 12 48 31 76 102 86 79 -1 -33 267 5 84 32 44 -74 -41 102 236 259 83 62 76 56 16 60 13 61 29 57 -39 38 73 -51 -13 71 59 56 -41 95 80 90 28 26 22 -2 52 49 95 10 59 14 73 -28 -68 75 55 13 39 35 41 130 41 13 106 13 29 100 -10 -59 77 3 -5 73 34 27 4 -30 87 78 128 34 136 74 -28 89 4 117 54 -71 -12 76 39 -4 82 60 -8 -23 -11 -28 81 31 -31 29 79 261 -19 62 66 1 -27 47 85 112 -1 -21 3 43 57 29 47 8 -72 -70 62 92 37 32 40 -11 91 53 43 -26 -19 82 -11 3 86 21 14 56 20 99 79 59 69 -55 -21 -6 -70 54 11 -32 49 77 -78 49 14 61 3 37 59 36 76 56 44 -48 65 83 91 -69 75 43 -5 -82 71 79 59 63 45 84 116 52 102 58 -16 54 -9 -60 35 -35 82 62 -59 36 -38 81 60 -49 121 50 6 28 22 90 49 -21 -55 49 6 50 33 18 13 28 77 -13 -10 24 -62 69 58 55 11 0 -17 15 165 86 -65 66 -81 -62 91 101 104 -25 77 98 78 41 -12 -36 10 -39 69 -19 -39 -42 53 51 -8 81 2 41 113 40 78 -79 21 -18 23 19 -43 88 -70 6 74 68 52 27 -52 67 16 -62 -78 92 -46 62 -2 37 89 41 44 78 55 82 5 62 32 -5 20 59 -5 -27 22 37 57 70 35 44 78 48 57 55 71 101 22 -46 -54 170 25 51 5 12 69 13 59 33 26 57 26 80 87 110 6 23 92 73 6 -21 81 65 40 51 91 69 -71 81 27 92 98 71 25 19 85 88 64 -50 -33 -7 30 53 -33 78 43 83 26 29 34 -40 73 63 -32 85 14 44 6 71 -6 -45 -66 20 77 85 37 46 15 18 60 16 86 38 19 58 94 70 14 -36 177 -52 56 63 26 235 -44 -40 78 -14 31 59 76 -17 4 69 43 77 -33 91 55 61 110 37 64 12 69 -46 38 -45 75 45 -23 1 128 70 -78 65 67 -11 -47 50 86 40 77 -30 -13 50 94 38 43 68 -15 47 -82 52 17 49 63 91 3 7 81 56 30 14 8 -11 67 2 93 -18 56 91 67 -43 90 68 6 56 72 15 42 64 44 80 54 -21 58 77 64 -81 80 -7 8 17 45 -57 42 81 75 -46 20 53 54 71 -2 -86 90 -66 92 77 -41 42 -7 40 83 17 88 79 -30 37 2 -45 -27 -34 -40 85 26 -12 103 47 -27 43 4 -42 48 96 53 82 22 7 79 -11 -59 53 81 -18 -70 58 93 52 94 -40 -41 72 37 122 59 71 99 -12 90 73 52 65 41 0 64 64 -40 22 40 68 -13 29 -13 78 43 76 13 159 21 4 6 21 -80 0 99 47 80 106 29 82 54 70 71 19 96 -70 104 129 -16 7 9 79 -7 49 3 76 22 7 -13 70 61 86 -50 64 -72 -13 120 43 -7 61 91 57 51 -13 46 29 138 40 106 52 -55 -57 7 99 63 50 63 37 -34 173 -31 46 59 14 17 24 90 89 0 53 83 66 -52 37 96 36 77 -5 71 -35 55 11 53 3 90 71 81 83 -74 65 7 5 72 -72 0 104 90 105 -59 8 73 90 53 30 -28 6 62 -74 9 67 73 16 53 83 9 61 99 91 28 -14 60 79 85 -19 -67 38 41 -11 50 49 41 76 -55 59 -21 38 -24 18 63 100 112 78 47 75 64 84 67 -35 93 61 13 -16 -32 -50 43 -29 73 38 -20 -3 -53 43 32 63 74 79 71 63 68 2 71 54 54 -64 66 -6 22 113 -32 39 40 94 -26 -66 -37 68 -26 -25 -75 41 9 67 56 17 -31 11 49 55 10 79 107 70 23 -82 75 68 49 -59 33 62 5 -2 47 16 79 71 21 53 9 97 73 50 -44 49 -85 -31 94 -46 65 109 90 52 40 16 57 89 93 -23 -14 93 15 95 76 51 14 63 29 50 66 85 7 18 79 -10 62 62 27 64 115 68 -24 60 62 16 28 -20 43 148 4 57 -40 -72 15 19 40 -71 57 73 67 14 47 41 89 65 39 64 8 84 37 58 25 109 108 -70 -18 58 73 2 -5 18 -36 19 4 -50 96 64 -29 83 104 14 -33 90 67 28 71 36 -16 69 62 -2 20 90 69 54 36 -13 36 30 -21 72 -18 -7 -4 95 -8 -2 15 79 34 55 69 -19 92 45 42 29 -62 -38 62 79 29 92 80 91 57 76 60 79 79 86 251 121 103 -31 75 15 64 51 73 91 37 -58 78 39 8 1 -35 33 68 38 92 60 -7 -47 -47 65 62 101 13 31 10 101 6 -6 -83 -6 -22 50 47 -9 76 94 85 65 250 83 88 55 -30 113 26 67 65 3 -33 28 90 72 50 -36 66 95 91 13 54 48 -2 112 -4 84 -23 67 -1 82 4 -25 33 -1 36 109 68 -46 47 52 53 100 50 2 117 63 81 21 72 -77 52 68 28 50 61 86 140 90 36 42 103 112 27 33 94 3 70 -2 19 221 21 27 1 37 102 50 46 99 89 26 94 98 9 64 62 53 37 24 27 81 99 81 -26 137 -77 125 76 -59 56 -42 69 -54 51 46 -56 -19 12 57 66 -74 13 99 -4 -11 49 85 -18 -31 29 -32 58 19 75 -27 53 -35 95 16 73 0 -17 -10 33 33 121 61 71 90 -68 30 20 -23 -5 53 22 57 77 78 72 83 16 56 -39 73 14 47 70 111 -29 61 91 88 73 95 48 59 -53 57 104 80 29 -51 51 -44 101 73 -21 7 93 55 90 -5 29 -32 58 -51 99 20 21 95 54 15 -66 -47 35 31 90 -42 77 49 -8 -27 142 34 8 65 63 25 -3 98 73 81 30 2 28 35 -13 13 64 0 -63 -12 1 81 30 -67 141 75 103 69 16 17 107 54 13 -33 -8 100 66 63 -62 -9 73 85 70 15 62 198 81 77 28 61 14 53 61 2 7 54 18 41 64 -58 61 85 -74 58 -37 -76 77 58 91 96 65 1 67 4 90 13 40 78 24 96 84 63 5 100 66 27 83 56 75 48 90 32 80 17 29 -5 23 67 -31 119 74 55 49 77 44 109 8 106 28 99 68 -30 28 85 2 76 12 93 87 138 26 4 13 102 94 68 45 -5 31 -69 91 82 58 67 21 40 44 90 34 35 -63 49 47 17 -23 13 38 29 -23 97 66 32 36 -44 69 51 52 98 6 82 47 63 94 93 93 32 77 19 46 -22 88 68 84 69 95 91 63 -7 33 40 47 56 -77 -39 56 -14 85 62 -73 0 106 -38 40 -64 -21 82 -16 -24 91 -63 2 47 40 89 19 52 25 69 17 98 -33 91 43 14 42 2 69 -16 71 -17 -45 35 21 -5 35 0 47 -82 7 33 -20 50 82 68 23 -10 32 34 25 77 -20 -31 -9 -37 60 65 49 60 -33 55 17 43 61 88 72 67 44 -33 9 10 72 104 41 58 -29 117 -19 -33 88 23 20 17 110 49 17 35 63 32 -1 -38 66 17 -12 -36 56 70 58 112 -73 84 -47 130 91 66 -33 84 52 82 12 40 -26 -76 -24 17 108 27 78 40 56 113 138 -13 67 92 59 -16 41 -61 6 69 77 80 3 106 44 66 86 72 -12 62 50 40 56 1 16 47 31 93 54 9 67 97 71 79 -18 80 -62 149 99 -39 78 10 33 80 -78 85 118 236 70 108 125 20 86 21 39 3 57 266 -30 59 90 -31 41 55 95 80 28 69 23 100 87 56 18 95 -69 -38 92 54 25 91 100 31 14 66 47 46 93 88 -16 95 107 92 268 -2 30 69 65 61 27 -54 59 90 42 -43 33 -52 -34 91 43 -80 106 60 -8 58 68 75 107 -48 -3 0 16 7 33 98 81 85 45 57 79 66 -89 73 55 73 62 46 -14 90 -30 27 58 0 54 25 99 74 31 10 36 85 44 58 100 36 52 62 254 52 125 -6 39 76 0 9 46 32 90 43 -89 90 64 26 94 -32 63 9 20 -76 -73 65 46 22 91 37 36 78 77 -40 74 113 20 34 -7 17 60 36 103 -2 45 123 35 68 27 110 49 94 -6 92 52 113 -26 115 19 44 97 -72 99 -35 92 98 58 180 -18 22 49 62 12 95 90 -72 88 93 -28 62 -14 -54 -85 101 16 99 51 87 97 82 75 39 -15 76 15 41 50 84 10 -45 33 53 4 93 41 35 89 77 18 -10 31 78 53 39 106 12 93 64 86 4 69 32 22 67 -20 73 111 82 93 -39 -9 66 63 47 40 91 20 25 70 78 100 -80 -21 -15 4 63 -41 58 17 59 87 73 64 -61 -34 65 15 37 74 53 81 77 75 6 49 -62 8 -37 2 55 69 100 24 -50 139 -68 246 -72 92 1 92 0 69 97 61 50 109 12 63 82 72 -20 -17 95 26 88 84 92 75 95 48 77 73 77 62 125 19 57 79 69 72 77 76 43 81 -2 -68 60 6 68 54 83 148 107 34 62 183 -29 55 91 27 -35 69 66 79 -63 -59 6 15 28 15 75 47 -26 72 94 61 6 85 69 41 111 -12 33 80 90 69 50 21 57 103 73 20 34 75 59 23 -57 73 -35 94 52 80 -44 -34 72 75 5 16 67 88 44 68 101 -39 61 90 -25 83 77 99 18 54 193 -7 71 14 67 9 106 90 55 97 86 125 86 -43 42 73 74 -33 -65 61 -27 91 72 95 56 -33 98 66 120 -1 -31 -9 42 -79 -65 93 -30 -18 84 -9 -57 -8 53 0 70 -12 -11 33 52 1 73 27 26 92 179 70 70 34 30 25 47 24 31 86 -42 82 49 11 -63 103 72 8 13 21 87 74 85 -39 60 -65 72 22 90 -81 -63 -1 73 20 73 87 81 -21 100 57 -41 86 87 -42 102 -12 -10 68 -50 -35 40 -53 75 47 60 106 44 55 7 -29 56 -69 87 123 15 10 24 111 70 -21 33 102 103 58 76 -62 75 77 14 141 230 53 -25 -2 19 35 99 -77 77 101 -6 63 -36 69 97 13 19 92 76 -39 -16 -13 46 60 65 53 -37 -34 -4 18 60 -32 51 -39 -10 79 -14 -31 82 9 64 -39 48 18 -4 77 33 28 65 -56 43 -39 -50 86 -25 54 91 85 51 132 56 -17 72 78 -51 -42 43 29 7 118 -75 100 34 97 80 108 38 19 -14 56 27 78 91 257 60 73 -7 64 66 -9 43 -24 47 56 96 114 65 84 254 -16 0 35 10 74 -50 31 64 80 46 -6 12 65 66 67 -2 -71 49 75 94 -33 66 55 43 81 91 12 -14 53 -16 44 -35 101 56 -59 -6 7 3 48 77 -65 50 130 -12 75 84 -14 30 48 -32 -42 74 -53 22 56 91 5 -74 -16 24 82 68 79 70 12 -25 64 43 -72 71 75 -21 52 65 40 -28 91 -68 39 90 64 132 43 91 93 23 49 49 60 52 -56 268 85 93 61 55 29 41 36 26 88 102 82 -68 18 -63 33 -35 94 77 -40 41 -24 -49 11 99 -36 93 -15 30 124 98 24 80 31 110 94 110 262 75 61 65 58 46 -16 80 92 54 67 20 20 101 65 -39 -7 121 47 63 99 -18 92 2 260 56 96 27 -55 36 116 -29 40 -38 -11 19 86 78 74 73 77 -42 12 19 80 45 -16 87 68 -1 34 44 90 64 -26 12 -28 25 106 40 -53 32 65 23 62 9 65 45 38 44 29 52 22 49 18 -17 -70 -2 90 58 82 82 91 -82 102 73 82 100 54 35 93 54 74 59 74 69 0 93 55 91 73 39 18 29 103 -49 94 71 -9 -37 66 67 3 -10 63 -68 70 108 79 74 37 50 41 74 -83 15 -52 73 97 80 32 35 97 -42 -43 70 97 22 49 97 26 -45 92 71 74 69 90 57 -37 69 10 65 69 15 34 57 72 77 41 39 44 62 25 28 76 65 57 -24 55 -37 102 58 90 -18 90 82 -85 81 83 90 92 51 63 -55 -12 77 57 -72 256 15 66 -57 -48 29 42 118 52 -76 70 -15 66 68 -36 32 6 0 -34 -71 55 85 84 15 31 52 56 95 84 55 -61 -42 32 26 21 47 92 73 4 66 57 75 66 -21 47 95 -37 -83 -30 20 78 58 79 90 7 90 78 40 67 102 59 2 75 83 10 36 -24 15 12 38 -8 -50 90 26 76 53 106 -27 27 113 41 47 -75 31 91 32 65 65 -10 65 56 95 65 4 24 -23 12 -61 43 103 -14 27 117 41 3 80 90 83 26 -18 55 75 -86 74 44 86 103 25 -4 90 71 -3 41 3 73 80 51 98 99 126 86 -21 77 54 87 -38 62 47 34 72 45 72 62 -27 60 54 68 20 21 -10 52 17 21 17 7 87 45 83 22 22 -5 2 -74 68 80 -12 93 83 62 56 25 11 -5 68 84 48 95 39 79 50 88 17 42 50 92 120 26 -20 262 63 93 -4 65 20 65 95 -34 -14 40 93 83 77 70 92 -1 269 -57 -48 45 61 -35 -10 31 53 50 74 58 101 65 33 52 69 75 102 -19 10 -42 77 25 21 66 -60 80 -51 6 75 90 92 72 14 30 -34 -36 62 81 67 65 -51 77 72 36 66 53 77 23 13 -4 38 8 79 48 78 82 46 54 33 38 26 65 77 -40 107 -25 2 75 99 44 92 75 70 75 95 41 74 0 10 37 134 90 69 -43 78 44 81 92 35 29 -42 36 57 73 50 81 21 90 95 -11 -35 -23 27 85 48 81 -58 9 21 37 -13 85 6 -28 85 45 49 -36 90 78 50 63 71 95 -28 87 37 66 77 -21 75 47 93 -8 69 93 65 51 104 64 99 91 79 67 72 -18 84 79 -43 -63 15 51 78 11 -51 66 56 -3 63 -1 12 64 116 79 78 88 62 65 -72 -83 53 -31 -15 16 -68 -49 34 51 17 5 98 55 75 -12 106 104 112 -80 -20 76 62 -64 72 54 52 59 -11 16 60 82 41 100 18 77 46 28 75 18 62 56 5 72 -37 98 61 79 46 -74 42 5 55 56 30 -8 92 72 53 95 7 40 50 90 164 49 22 12 30 92 70 14 79 137 8 26 110 53 56 -51 45 1 17 68 26 49 92 16 28 54 -36 105 57 45 14 61 85 95 -39 65 65 83 31 50 34 92 51 -3 37 62 76 80 -19 15 104 55 51 67 78 -17 28 -28 50 8 55 49 80 30 -46 41 104 68 78 -31 29 54 -54 40 57 59 104 73 99 13 85 53 37 51 90 -52 81 62 -31 35 7 77 -37 4 12 107 7 92 73 -10 19 20 79 4 16 -10 101 18 51 17 71 87 26 95 80 115 64 77 20 70 91 8 -46 73 75 79 7 101 23 66 -58 85 55 93 -32 33 28 59 60 61 78 -28 31 46 19 42 -17 20 59 92 76 59 -37 71 21 48 46 73 6 196 69 50 109 40 70 72 26 254 -36 66 -22 -28 53 -10 -4 4 66 41 56 16 -18 4 30 40 57 9 26 14 -53 62 13 -81 53 -36 53 26 24 17 78 84 43 76 90 12 62 75 44 76 90 45 85 88 -18 34 2 62 36 54 114 9 30 44 44 31 78 -13 80 67 59 20 -36 30 13 170 55 -75 80 1 54 -2 75 74 61 56 -29 70 75 19 68 22 -40 84 69 83 17 70 26 76 21 44 -36 15 -3 108 38 43 -17 49 98 48 81 40 86 8 28 -4 46 44 10 3 42 69 73 7 1 72 115 35 -89 85 18 43 -2 35 36 38 -48 43 67 75 98 48 65 64 85 62 34 67 12 54 84 47 35 40 -17 39 46 76 -23 60 83 78 29 40 64 70 72 36 4 54 67 28 100 74 101 100 84 77 -31 112 22 40 -45 69 33 52 102 77 71 108 63 105 -14 86 28 52 65 74 -35 35 80 259 39 51 30 89 57 46 50 81 61 24 26 71 91 80 99 87 77 15 -52 61 -36 7 -1 82 91 -5 36 59 93 57 61 68 122 -15 47 -2 -39 63 67 92 72 21 -69 -53 77 70 91 66 100 62 14 -24 -14 14 60 68 77 132 -2 70 56 51 -35 119 73 41 9 56 -39 -61 96 49 238 41 58 55 77 31 76 71 102 40 77 6 113 94 91 64 23 29 68 32 88 41 23 54 65 51 -39 -33 -12 78 15 7 81 43 -32 48 76 24 33 18 37 64 69 103 63 33 141 122 74 68 31 92 41 90 34 71 55 70 31 80 80 86 43 53 247 -75 60 70 50 -44 96 -5 96 48 75 8 60 33 16 82 -30 65 79 11 31 102 54 73 -8 34 -7 57 -37 38 91 12 25 -12 73 -6 80 26 88 -44 18 -33 7 101 57 56 -38 94 -1 -8 -26 -12 22 25 57 28 10 91 90 -49 90 -71 41 -6 56 54 72 76 78 6 88 102 3 75 79 -4 96 3 72 -54 88 72 97 110 18 -43 -50 -31 68 46 -35 105 26 9 -5 31 41 25 58 38 19 44 -38 37 75 95 80 55 23 63 -7 104 78 76 92 108 3 103 -41 -36 106 38 94 22 91 73 25 30 67 76 -16 -8 -58 81 102 -33 58 57 53 89 90 23 49 -16 90 96 78 42 -39 62 -32 -3 24 39 28 3 75 -49 67 61 63 11 49 34 62 34 80 92 19 -9 11 37 -34 -33 -37 8 43 91 9 1 52 84 37 69 -80 9 72 -58 38 45 44 91 71 17 68 22 14 -35 69 -17 -36 54 -42 57 41 49 -66 -29 96 44 -33 -31 45 91 58 82 82 3 75 19 92 -53 11 51 70 46 55 60 -42 -64 45 9 106 91 -88 8 92 40 81 52 105 92 52 116 -22 -10 72 50 -56 42 56 -1 41 -21 -80 12 83 105 93 90 97 90 95 46 91 -4 35 37 102 4 95 57 16 250 50 55 45 101 81 -16 39 89 3 45 14 -30 18 75 -13 -54 55 62 -1 76 -34 -61 95 49 70 71 -63 46 62 16 85 -36 50 61 37 -56 -54 59 11 -16 105 7 -27 97 -44 95 15 93 97 54 188 51 27 76 17 50 35 -22 127 64 67 14 5 94 19 -22 68 70 68 53 97 31 53 49 28 91 32 8 42 7 45 48 96 -40 101 41 98 74 60 212 95 -3 81 79 44 -50 49 80 68 29 50 -2 80 -36 34 74 111 12 98 72 96 83 63 24 65 8 71 90 -3 73 65 27 -1 -73 -58 88 94 -2 7 73 37 36 113 62 -13 105 93 94 90 105 25 76 94 2 76 94 70 104 69 110 33 84 68 13 82 -4 21 81 61 72 68 22 -40 -22 61 90 39 -79 -14 77 78 122 -10 -62 128 92 79 32 53 62 -44 -33 91 94 -1 2 39 63 75 -37 -2 76 61 26 67 79 -38 -5 77 12 32 -47 31 -4 -9 15 55 71 27 19 70 57 34 90 -27 92 78 103 132 33 66 87 -57 -52 54 65 -42 -35 55 31 99 92 55 78 91 4 67 -32 -31 -35 -59 79 64 75 85 87 4 96 48 55 0 -15 81 66 -19 -41 96 92 -23 34 29 80 52 91 82 99 95 117 13 -39 91 94 54 86 -48 56 93 56 43 125 87 90 -35 92 55 25 43 116 -67 -23 102 90 60 70 -26 -34 235 -37 -55 94 23 -41 83 -11 14 99 -36 92 79 -64 25 60 95 43 90 78 90 91 -47 50 -37 96 85 -11 91 20 18 95 103 91 102 57 86 99 -26 93 67 59 -3 -7 79 -31 119 -36 82 74 102 -10 76 91 59 63 76 95 77 25 77 79 -32 70 52 22 63 -53 267 -25 -19 66 76 25 -45 79 -30 110 12 64 72 51 -44 -66 50 36 82 12 60 37 18 60 12 14 -81 52 107 18 -55 78 56 68 -78 103 82 38 74 -31 7 14 99 121 36 84 -9 95 54 61 59 57 96 44 83 -62 -42 67 -11 26 66 41 -54 73 91 264 99 65 91 -71 91 124 72 -35 5 -49 75 76 73 57 85 107 80 28 82 87 -3 -34 95 226 93 93 -69 -46 92 92 91 90 71 73 121 -35 58 135 64 92 -50 -36 65 91 91 128 30 92 77 95 81 93 -46 21 78 -63 16 66 27 90 -56 11 71 77 -19 41 105 51 -21 94 63 -11 253 106 94 85 81 30 54 67 -32 95 16 94 7 92 42 -36 -65 58 125 -50 86 40 97 -31 63 55 58 -79 40 78 98 47 71 -27 34 87 94 90 31 90 79 -14 98 71 13 121 101 80 91 -48 133 73 60 80 99 32 -11 263 97 39 265 51 90 -34 -38 -6 116 5 52 37 -17 -52 110 -51 45 55 58 55 270 105 105 89 47 93 80 95 93 -32 81 182 -12 37 70 -21 101 30 69 31 -55 30 -31 105 68 90 91 120 -41 75 96 43 93 58 72 58 -2 98 91 53 90 -1 61 60 9 70 23 -74 -55 90 101 98 55 110 76 -18 0 -41 -37 94 -41 -11 79 -58 110 92 104 -2 79 130 -33 69 -64 73 -44 76 40 -37 103 -55 241 25 19 64 70 90 35 43 -31 121 58 133 129 -38 91 15 -2 -32 20 93 56 75 57 25 91 37 -31 97 51 83 -31 82 -75 44 262 92 48 52 93 56 43 107 86 35 2 51 103 -30 90 -55 79 27 47 98 70 78 75 32 5 -31 94 90 71 79 -88 80 78 100 95 -44 35 81 91 63 77 111 107 35 -71 130 -36 29 -28 8 -1 95 100 113 66 24 107 66 98 77 55 -42 72 65 48 4 -69 87 95 117 -45 104 -20 49 1 43 88 -25 -33 65 -15 45 263 -12 67 90 91 79 108 6 9 110 -8 28 7 113 -42 72 -8 -50 57 50 80 118 37 38 93 90 41 113 111 100 -52 2 94 93 -36 67 72 23 71 76 -35 68 90 -86 -66 78 -39 52 -57 29 49 97 77 97 -58 77 -30 8 86 99 96 -54 -33 66 96 30 91 90 14 49 73 50 73 39 39 80 104 104 90 94 93 -39 -39 -26 -41 101 80 67 42 -4 -71 95 -6 11 62 93 93 81 94 95 100 91 -9 97 110 -38 69 52 -11 148 91 48 90 74 -33 56 69 53 83 81 54 103 -12 46 85 54 104 41 64 98 92 92 185 -43 116 77 93 15 83 82 91 65 75 69 25 95 -16 74 52 85 52 106 -40 75 39 94 40 90 13 48 24 90 94 -69 56 128 -36 -19 63 103 96 90 39 96 57 -8 47 51 48 90 -5 101 95 69 266 27 252 90 192 55 96 72 -35 -56 65 -33 93 -10 11 -15 66 53 -75 30 77 -40 -15 32 18 43 70 -17 48 37 90 92 -32 59 71 113 43 91 83 107 30 75 41 -76 -4 139 57 93 -40 -40 -42 73 91 92 78 254 48 97 17 63 45 93 93 60 36 80 102 24 43 56 52 219 82 38 87 44 43 122 37 81 14 47 91 91 49 101 61 90 43 94 17 75 101 36 52 92 96 44 66 92 114 4 -42 3 94 105 95 41 127 46 57 26 31 52 88 -28 78 77 -7 82 88 67 31 66 -87 66 38 80 163 61 70 62 60 102 84 85 80 76 94 69 31 50 18 66 44 46 -3 86 27 83 -29 9 32 76 90 -35 67 9 59 25 -42 13 68 21 32 17 11 32 -37 102 21 15 -11 17 80 51 -35 84 -49 102 14 49 -66 92 123 81 16 93 52 51 51 107 110 21 66 -42 80 -10 -18 18 58 111 79 40 63 60 53 76 23 125 -8 79 81 5 103 24 78 126 0 -7 87 6 79 137 67 -15 157 56 -54 80 27 93 69 -77 47 0 29 60 67 70 -11 -10 41 62 32 69 85 83 62 7 51 54 76 42 -47 68 67 70 63 82 90 10 67 -88 77 93 12 79 170 78 90 84 65 58 230 23 84 -48 49 -64 58 -55 163 28 81 133 76 83 33 17 50 0 63 -27 55 37 66 83 -37 40 102 102 23 -10 -13 75 86 115 -46 130 55 5 70 -76 75 76 84 84 44 65 -48 -59 -25 -55 82 76 46 25 7 10 7 40 17 99 25 10 79 117 92 68 56 57 51 88 96 -21 133 58 58 130 3 203 98 118 170 59 85 56 85 59 115 43 90 48 9 15 53 39 42 39 -59 -8 -71 -49 46 39 67 -7 -10 4 71 29 119 4 37 -6 -7 90 97 62 91 67 40 -7 56 74 55 157 -69 81 80 56 80 -76 99 111 -2 -21 -63 77 0 135 -33 71 36 -30 15 114 251 39 97 128 16 78 -22 -15 -4 80 110 83 88 -2 44 -29 -9 88 69 74 65 4 42 12 50 -20 43 65 77 96 -16 51 -35 34 54 71 104 48 37 73 53 148 72 41 -72 18 13 35 56 104 62 45 -26 83 56 85 110 69 79 102 57 -50 39 -55 63 20 87 58 -40 38 -42 30 63 42 -35 89 -8 3 48 72 71 31 -48 87 99 124 -68 73 -20 103 122 -9 116 15 -74 72 92 40 2 -79 9 80 95 45 78 49 83 -57 99 90 46 100 54 18 96 7 69 -21 91 -21 -7 -175 3 44 72 34 -15 -2 59 7 60 67 6 -17 145 -38 72 108 -64 89 60 82 90 25 -16 89 36 -31 44 65 -17 2 76 79 14 124 42 115 90 57 69 92 72 93 79 78 23 -17 52 -23 88 21 61 -21 92 75 94 29 56 85 65 -13 -37 14 77 -34 85 33 -26 16 169 17 39 122 -49 -18 87 72 -35 -92 -17 111 -28 54 86 113 42 -81 77 92 52 8 13 82 37 -85 43 115 51 -19 99 -57 20 108 -49 13 -56 49 30 130 56 63 7 100 -9 79 82 61 68 -64 239 100 77 50 92 -3 36 19 83 -70 48 80 42 12 -47 -24 54 -19 91 -47 -75 32 21 77 109 12 61 3 85 22 9 143 65 97 57 260 55 166 57 106 66 2 63 50 -58 7 7 94 57 44 100 105 82 -31 94 51 62 -40 53 4 27 78 47 64 78 60 44 84 -4 162 65 2 87 43 71 76 -3 96 200 41 135 135 -49 66 -78 22 59 61 -2 56 113 48 116 126 95 99 44 99 63 37 -12 36 68 36 79 134 110 92 92 111 -18 81 25 112 -70 -22 93 65 7 79 -11 62 96 73 53 52 89 -44 87 46 -15 -29 58 -26 90 123 75 26 61 50 73 98 5 28 74 -66 44 38 59 68 -47 74 54 32 -1 -23 66 7 41 -15 55 76 21 110 90 -40 83 41 -11 63 5 61 72 17 83 -18 -37 43 25 93 7 31 88 27 44 110 127 6 72 72 -42 -7 58 85 -15 6 64 70 33 106 180 30 89 57 64 2 123 24 -56 130 111 87 35 77 48 80 -1 88 58 74 18 90 104 84 -37 34 235 93 -63 80 46 56 112 -23 66 -27 19 -9 33 110 64 215 66 103 102 47 13 18 40 89 0 95 28 76 -40 37 2 91 -29 111 -10 92 66 -59 -79 94 -66 84 67 7 82 81 102 44 66 74 -54 112 -5 43 110 160 -31 72 64 62 68 -14 43 -1 68 82 137 29 96 77 -51 79 110 80 -5 43 35 7 43 95 101 -91 16 75 -22 53 0 46 82 127 94 -74 59 82 121 105 90 -18 110 62 40 171 98 94 61 61 48 80 18 64 263 90 89 -6 71 -26 65 105 0 32 9 221 48 65 54 72 -37 80 72 70 72 106 66 8 -86 11 85 -32 65 -45 60 -17 88 81 88 67 70 63 131 55 77 57 -55 112 90 57 77 9 39 76 -60 69 74 84 54 84 53 83 71 46 77 40 23 71 111 29 70 94 -76 51 101 69 -19 62 112 19 132 92 61 -44 82 67 27 75 -63 56 87 78 49 84 70 108 56 95 -20 36 42 43 -53 91 69 -18 -21 45 55 45 138 49 57 77 140 91 26 65 -35 81 100 83 92 142 82 73 45 268 84 46 -30 79 71 88 -85 13 -58 63 29 247 30 90 87 103 -62 86 84 5 88 -73 -32 62 -60 55 32 1 17 58 69 88 182 89 86 86 -60 47 -81 -5 63 -51 119 76 265 39 -40 -74 44 -29 113 20 69 27 73 59 -53 41 61 187 92 -24 215 23 103 -71 20 55 73 70 12 168 92 84 0 40 -60 86 82 64 77 18 86 4 26 89 20 66 60 -12 -42 -37 80 49 71 103 -92 128 22 41 49 70 47 57 63 25 -81 79 60 -42 68 80 51 26 55 -64 41 24 164 30 39 66 91 91 100 70 80 68 100 22 -148 79 -12 72 -10 84 5 15 46 261 119 147 94 29 64 72 109 54 -36 69 49 54 2 94 101 14 27 97 91 72 -62 99 49 -1 34 100 65 35 63 -52 160 -64 55 -56 33 114 60 89 69 1 64 82 15 50 28 -39 62 16 103 92 68 40 77 8 100 -3 95 10 55 89 53 -14 85 97 60 -38 38 44 45 -6 201 29 89 -21 115 -10 101 65 84 93 91 134 -50 101 13 96 -7 -10 80 86 12 89 7 157 27 50 63 134 108 22 115 72 108 175 47 64 86 66 71 97 43 -38 56 71 131 89 64 19 100 151 61 -52 73 1 96 97 129 -73 103 62 89 56 90 65 69 107 62 -55 48 93 108 64 68 123 90 -20 -64 89 -58 62 22 104 103 138 16 99 -37 49 71 -12 53 85 63 92 -6 192 31 59 -45 54 111 51 40 54 -76 -67 -2 61 -52 123 66 31 56 0 110 46 -29 98 81 86 83 7 56 118 27 94 -89 46 103 90 38 -35 35 86 79 51 80 119 89 107 34 104 -47 9 61 58 169 -17 -86 -6 19 -10 60 31 78 104 60 112 73 68 -19 73 91 85 71 -6 52 59 147 11 63 107 7 53 -32 84 62 -16 -38 113 26 58 44 91 -66 -73 138 34 52 57 19 -76 101 -44 -53 82 6 -3 180 72 65 70 40 25 78 256 253 90 64 70 -23 0 45 -65 69 134 20 71 -67 104 4 117 85 -19 48 8 66 71 50 128 110 85 37 -77 44 68 96 -37 91 125 93 6 50 104 266 56 9 -7 89 72 105 136 93 67 -81 69 -58 68 111 -65 48 53 116 213 43 96 111 92 24 70 -17 30 100 71 56 39 72 77 82 76 74 14 -45 72 106 18 50 53 70 -45 52 37 33 64 62 -99 142 89 107 -85 91 89 82 87 51 -58 -53 67 -40 74 77 81 -43 67 43 -16 -46 69 53 -29 -21 63 39 250 54 139 -43 13 27 84 64 10 60 190 -71 77 67 -24 64 67 169 90 -44 79 102 57 31 73 -7 84 77 62 75 67 79 40 79 96 -27 83 89 71 80 92 75 -48 1 58 64 52 72 32 69 113 46 45 92 -16 -59 84 57 72 65 94 73 78 159 72 -62 89 124 81 91 83 24 87 130 86 33 34 90 48 40 72 74 88 25 142 2 65 77 64 10 88 33 -49 84 77 120 66 -148 125 -56 97 66 69 -88 67 14 111 23 258 121 123 107 129 119 84 12 -63 -48 82 60 12 60 -20 -56 169 -36 61 -11 80 147 25 -83 30 85 -5 -30 73 103 70 14 57 73 110 67 187 79 -22 -2 25 24 109 136 69 118 75 27 60 160 52 77 50 88 30 44 58 41 60 74 70 -4 81 34 70 57 70 66 95 115 13 30 50 41 116 -17 71 81 79 89 98 -56 -40 -46 74 59 247 47 58 84 66 67 67 -46 18 1 -3 94 -34 64 -20 60 86 100 77 -60 76 97 -8 78 -42 60 45 59 46 -10 67 72 76 111 133 127 54 43 71 26 51 124 21 61 95 46 73 5 21 81 -25 38 15 28 86 34 83 47 67 41 59 112 51 42 12 105 4 -31 70 165 -34 71 21 0 99 112 82 -6 18 68 -75 89 -64 23 40 -9 70 38 58 -85 70 257 64 71 96 93 -42 57 84 -85 82 75 90 -83 72 75 96 216 90 76 -49 60 73 41 -41 25 67 28 80 63 72 148 118 37 192 0 50 -40 79 52 73 27 -12 90 115 117 46 76 92 70 54 82 -30 155 -70 -37 87 3 53 -74 -20 116 18 -18 19 77 79 81 77 -86 -22 41 -22 -42 214 54 56 31 66 -24 80 43 67 119 150 134 67 82 68 28 34 100 118 71 128 131 -9 82 29 77 75 92 22 59 79 95 81 64 97 117 63 43 73 0 122 118 56 44 67 86 148 48 41 65 100 87 91 -89 63 77 92 45 129 101 138 61 41 -8 85 78 78 -74 60 97 82 153 17 -2 75 103 23 -47 59 -27 55 86 63 108 80 113 90 30 244 97 -9 42 36 50 81 2 69 53 58 66 -70 240 -51 -8 39 103 22 62 60 81 -49 70 89 6 74 29 65 270 103 66 68 45 12 -14 53 64 -48 -20 268 94 65 66 66 104 49 97 -28 74 29 -8 -11 77 81 6 28 69 84 74 11 7 105 7 38 42 88 51 -7 76 81 51 0 -29 8 -18 87 74 84 -60 22 85 75 13 58 83 33 -44 57 0
