2 166 184  152 204 166 168 162  200 176 144 212 156  148  148 194 144 184 172 120 178 174 202 242  160  114 208  184 166  152 152 222 182 180 144 134 246 232 182  144 194 168 130  146 196  172 164 186 168 260 170  166 180   166   160 174 146 164 218 144 182 150 194 146 166 156  168 246 140 210  220 140   258 148 186 140 160 176 144 168   176 166 214  158 156 208 220 122 128 148 150 148  148   200 188 146 144  158 150 250 164  152 164 172 164 214  198 196 166 168 122 198 164 200   170  152 132 244 168 176   148  146  170 134 174 174 92 264 298 162 202 178 170  142    186 166 182  158  276 200  140 162 160 220 152  162   148 200 194 142 176 170 178 192 160 132 178 190  208 172 164 158 162 152 146 168  204 168 154 180 156 80   248  154  174 210  232 192 152 178 138 192  202 178 240 162 154 218  164 188  192 172 184 132 186 156 198 158 172 228  146 156 176 210 150 172 164 146 180 168 134  154 144 208 172 162  126 138 150   184 128 182 158 150 188 140 180 160 158 136 162 96  200   210 170 166 148 162 152 148 182 170 176 154 246 128 192 122 184 166 194 140  164 156 132 214 202  158 232 130  162 132 134 248  228 178 168  158 164  156  156  250  220 192 110   194 184 168  144   168 146 186  158  162  182 194  200  122 156 184 194 180 194 132  212  172  200  192 184 142 198 160 170 248 172 156 188 174  128 136 226 200 170 196 124 168    148  168 146 166  154  161   120  136 140 137 172  114 184 178 178 174 130  130    156 90 138 188 154  150 150 144 168 214 142 164 178 164 192 226 188 178 168 210 136 194 164 238  156 194 154  162  132 128 184 168 92 138 138  166  166 170  132  174 176 164 142 224  130 150 194 114 158 144 180 182   220   224 234 128 156   178 158 152 198 168 132  102 172 160 148 186  240 176 178 196 170   196 140 164  152 140 184 190 136 164   184 172 180 110 150 220  160 138 178 150 146 186 116  214  178  144 140 164 278 194 194 174 190 216    126 216 172 240 188 178 156 208 76 208   206 148 208 200 200 166 174  120 126  236 140 156 176  134 176 138  144 174   156 172 192 234 160 168  182 214 140 196 162 186  144 228 166 170 156 152 152 170 146  134 178 192  152 174 188 160   166 202 160 138 160 194 178  146 138 304 206 144 154 194 148 154 166 194 190 160  142 154 148 162 176  160 142 204 200 206 156   134 196    178 168 166 164 146  166 138 164 126 126 158 188 192 170  146 160 238 168 262 178 208 150 154 166 138  168 154 194 130 196 198 130 186  176 200 160 224  166 176 150 150 172 204 154  180 198 146 180  142 198 192 240 158 144  150 142 188 144  164 166 184 200 176 214 156 130 160 164 172  156    172 190 144  148 182 174 176 126 210  162 158 202 170 162  168 170 226 160 210  196 180 156  168 140 210 174 172 156 146   146 198 204 150 228 200 108 200 272  178 150 192 184  144  240 190 148  188 194 176 170 218 214 166 152 162   156 172  410 144 176 226 172 134  172  164 208 158 156 142 188 162 152  236 182 158 150 172   164 170  158 158  166 162 164 166 162 154 212 180 182 168 192 164 226 156 224 142 214 156 154 174 216 202 150 144 202 186 144  196  154 200  184 228 128 182 132  182 156 188 150 190 146 196 148  202  180 142 194 156    160 180 156 156 232 138 292 184 170 118 168  200 186 132 252 208 242 210 158 214 180 204 212 180 140  168 226  158 192 204  164 158 216 162 164  144 194 186 204 188 196 178 160 210  184 160 156 132 132  152 190 148 160 140 172 140 262 148 162 126 134 180 200 452  174 136   150 184 164  154  166   128 142  156 174 180 120 176  174 158 196 192 152      172 176   162  164 154 186 136 162 152 160 156 178 172 172 200 160 124 170 164 152 250 168 144 284  164  172 174 144 152 176  184 140 192  144 180 160 182 112 172  156 164 180 242 108 118  140 258  106 170 140 172 146 166 220 140 142 168 190 166 162 142 144 154  196 196  150 170 152 154 186 146 168  144 164 174 142  224 143 152 156 234 184 528 288 162 118 222 156 152 168 162 152 158 166 214 228 162 210 196  172 118 226 140 176 136 192 204    178 146 216 162 184 194 138 152 158 138 156  180 208 150 290 172   142 146 156 152 136 152 186 170 196 132 206 182 146 316   218  162 172 174 202 150 126 178 150 144 132 182 168 198  180  164 142 190 162  206  288 182 152 142    216 170 156 156 162 144 200 170 236 154    140 154  186  180 200  158 172 170 210 176 192  156 208  134  156 132 144 194 152 150  154  164 194 172 176 160 160 212 184 164 206 146 126   196 162 172 164 144 160 132 194 224 172 178  144 100 156 174  154 160 276 120 158 210 216 168 232  154  200  172 232 162 154 138 174  196 148 176 178 166 188 156 174  194 154 160 178  196 176  172  202 206 172 150 174 182 174 172  152 140 152 198 120 258 204  192 164  184 144 156 146  168  168 176 174 172 162 172 192  172 234  172 138 160 136 150 172 152 164  344 276  132 368 210  186   108 242 184 194 198 152  140 168 190 138 188 170 212 136   166 170 146 176 138 136  122 226 146 184 172   196 136 128 208 164 230 168 208  240 182 152 168 148 194 158 178    156 164 182 192  170 190 142 182 170 164 164 144  168 180  242 152 168 178 224 140  188 186 198 178  254 158 218 176 228  182 186  196 164 124 128 228 128   158 164 184  222 172 174 158  160 172 158  148  166 170 168  138 124 162 164  172 166 134 164 136 188 146 168  174 142  162  126  164 188 176 180 196 168    184 136 166 184  176 166 188  220 132 154  178 130 188   152   182 160 150  140 194 172   144 160 124 248 186 188 174 194 162 196 256 170 142 164 220 188 152 174 176  226  170 214   148 128 240 162 246 176 170 180  218 288 210 158  140 148 170 166 158 200 140 154 152 124 184  148 162 148 188 148 200 160 152 204 140 146 174 142 152   154 142 232 190 148 128 154 138 180  146 174 174 154 168 162 156 112 192 166  168 176 168   148 156 174 164 148   232  168 140 102 144 206 220 156 144 192 154 228 210 190 204 146 190 138 214 168  144 154 184 176 248 186 188 182  140 212 160  186 192  158 186 200 174 184 142 140 124 134  168 190 118 170 182 174 238 158  142 194 170 172 130 196 168 198 220 220 176 182 196 190 146 118  186 144 156 134 152 156 198 150 190 186 152 182 182 204 174 176 156 196 166 162  132 162 158 178 160 178 180 176 154 166    172  200 178 180 136 132 156 294 192 190 188 148 184 186 180 168 132  112 138 170    190 170 164 148 118 152 154 138 154 172 178 110 162 172     160  216  190 210 156 166  208 332  180 146 172 142  154 184 164  214 134 150 170 186 92 124 156 208 140 178  152 184 124 176 180 224 174 226 176 164 130 128 192 140 184 154 220 128 154 158 108  158 136 150 188 198  112 162 148 186 152 150  140 130   148    164 212  196 148  160 184 194 134  176 170 172 158 188 218 182 160 160 176 162 162 124 186 204 158 172 140  162 218 152 176 188 134 168 156  134 176 158 218 224 126 118  204  238 136 164 152 168 166 214 188 146 162   170 134 128   176 150 164 122  172 224  194 150 152  168 170 164 174 180 194  142  162 178 178 188  164 216 166 142 214 144 190 138  146 138 144 212 156 186 200 154 264  161 300 176  156 158 160 150 136 220 122 190 194 168 164 200  150 184 166 152 174 158 188 138 220  188 176 148 208 239 160 184 160 172 140 164 186 136 168 146 140  210 152 196 188 116 194 170 186 168   188 140  150  184   152 238  206  152 184 158 170 142 176 162 194 148 198 172 146 170 212 206 130 148 192 156  106 206 174 150 160   134 158 174 122 134  150  128 190  168 200 308  158 142 146 144  138 172 196 170  130 162 188 176 144 204 178 196 218  196 172 150 212 166  188 150 170 192 144 204 144 156 136 226  214 142 184 194 146 166 186 174 164  158 136 106 152 198 148 142 162  136 186 162 152 164 164 212 122 152 160  264  164 148 158 144 160 120  140  158 182 188 222  156 224 136 252 164 180 146 168 178  134  158 184 122 178 158 152  144  160 168 162  166 240 154 154  188 190  200 208 156 220 192 194 178 148 158 168 168 170 224 194 174 156 138 184 222  134 158 226 158 182 212 150 160 168 176  174 150 140 158 126 144 172 172 218 214 216 172 162 156    170 160 158 176 156  194 162 198 172  140 156 160 142  144 128 154 136 162 156 152 162 178 162 140 170 152 124 148 144 188 110 146 156 130 152 158 246 204  180 176 176 174 138 184 180  144 198 196   148 186 170 160 346  144 172 188 170 124 188 166  204 212  140 160 152 148   130 178 162 188  160 152 184 162 152 154 166  178 178 182 156 128 234 172 174 210 172 182 180 180 166 152 184 146 196 152 158 116 148 174   156 184  158 156 134 136 164  138 198  262 170 154 186 188 190 144 200  146 142 154 152 160  134 168 176 258 174 146 120 116 130 138 174 128 148 146 152 194  144 162 152 270 170 222 166 152 152 156 170 148 140 144 148 240 180 188  232 234 154 176  148 136 160 220 172 224 156 190 162  154 166  196 132 204  178 182 164 146 222 154 134 160 180  150 166 170 176  142 182 196  142 180 166 136 160 168 196 198 118 240 168 202 162 210 166   146 156 160 172 214  146 142  150  196  174 144 222 246 172 176 176   286 142  164 160 176   140 172 264 160 140 174 156 166 160 178  144 188 144 224 170  192 164 168 148 216  128 156   148 180 176 150  176 186 204 140 182 156  148 234 162 182 196 146  152 146 154 162 146 110 132 170 176 198 132 162 152 166 172 174 178 186 202 174    170   192 136 190 182 162  204 126 192  214 134 180  208  228 230 130 198 108 162  188 170 146 184 114 152 142 170 148  156 128 158 140 166 156 136 178 168 196 222 194 232 160 164 150 162 124 158 184 168 150 174  184   222 154 168 178 198 168 134 170  188 230 182 228 164  170 112 138   162 142 174   140 196 164 134 150  166 144 158 110 176 184 180 134 198 154 178 216 176 154 182  212 176 192  152 154 162   186 200   156 142 228 192 200 126  194 162 162 178 166 156 178 134 146 162  172 168 176  170 144 144   170 182 180 162  144 152 172 186 176 204  204 232 170 180 164 178 158 224 222 150 212 162  160  190   150   156 184 180 176  172 192 196 206 148 206 162 166   170 162 186 106 176 228 130    158 172 186 142 148 140  138  170 138 160 138 210 192 214 178  176 130 184 156 170  188 174  156 116 216 180  194 214  148 152  140 138 190 214 156 152 192 200 146 154 116 196 142 172 168  150 264 204 200 156 124 168 134 150 176 178 152  152 276 152 154 152  142 174 170 142  126 160 188 188 210 192 178 129 156 136 196   130  170 130  128   162 140 164 226 194 134 182 160 180 188 138  180 126 134 190 176 166 198  208 186 146 186 180 218 150 168 162 142 106 144 150 160 216 140 200 148 126 80 190  164 220 220 240 144 242 194 142 156 220 180  172 80 140 124 128 156  158 150 252 158 150 178 150  162 160 138  232 142 164 156 184 188 200 158 142 154 176 146 182 138 174 152 154 214 152 160 188 152 186 174 208  182  172 126 164  154 188 120 176 156 152  166 160 226  196 154 180  148 152  164 190 198 154 152  184  164  160 148 186 190 224 162 120 128 180 160 178 162 180 176 176  214 182 154  274 108 160 168 168 192  168 132 128 154   180 180 142  166 162 218 172  194 164   122 126 156 180 290 158 216  166 172 146 146 150 132  140 140 160 104 80  140 160 240 156 184 146 192 128 162  152 184 172 146 178 140 160 156 194 202 140 138 182 168 172 182 170 144 162 200 212 186  218 220 170 182 244 128 148 194  148 168 132  180 206 166 176 122  352  168 236 116 180   178 192 182 150 162 158 192 174  142  154  172 144  168 178  176 202  136 150 168 254 192 168 148 190 240   172 180 180 160 134 156 154  144 182  184 152 176 190 168  174 176 156  164 328 204 150 206 166  270 170 122 190 150 168 176  114 148 156    172  296 146  154  176 180  154 164 114 122  184 170  170 188 156 132 136 110 170  150 166 124 164 152 156 250 112 162  130  192 172 174 116 152  110  132  168 156 122 168  150  184  212 148 210 144 138 152 176 176 210  166 244 202 148  168 168  150 196 124 144   162 162 160 174 244 210 156 178 184 196 212 140 156 170  146 194 166 196 142 168 154 138 90 180 206 144 188 144  128 128 156 184 170 264 108 232 210 148 108 148 264 164  142  184 160  154 188  130 152  168 162 166 216  140 164 224 142 158 144 210 176 158 176 186 168 158 184 162 144 146 160 174 154 190 162 210 126 188 196 134 174 168 166 148 172 222 142 128 170 168 162 156 204 146 162 200 260 210  172  176 254 170 210  124 176 152  142 172 138 124 148 206  214 172 162 154 170 156 184  172 212 216  116 158   200  134 192 180 152 134 172 166 158 178 190 170 164 176 168 170 196  154 100 180 130 234 152 140 146 162  172 212 154 178 160  148 144 286 184 162 188 204 170 186 120 138 204 196 140 172 204 228 184  164 246 160  178 134 124 166 174 142 230 163 164 154 160 150 170 242  198 160 160 156 150 174 162 148 184 148 180 168 168 292 144 164 228 172 144 166 176 168 168 160 128 148 206 152 158  184 152 132 188 174 144 214  170 188 240 174  134 198 162   98 136 190 166 124  178 180 208  168 178 158 168 148 140 128   212 134 188 186 196 180 136 176 168 152   154 176 194 132 156 166 188 154 174   162 172 120 180  136 176  176 176 128 144 180 166 180 282 140 148 186 204 114  204  216  182 154 176  164 122  188 142 126  136 258 178 158 174 178 156 116 170 148 164 160 168 204 202 196  240 170 208 184 172 182 186  140 128 184 180 138 174  216  152 164 162 164 180 166 148 200 164 176 230 186 106  172  193 220  158 164 136 158  168   150 166 164  310   156 168 148 168 152  164 192 180 144 182 168 192 160 154 144 106 146 174 202  180 192 158   170 182  182 154    140 132  152   240  164  150 170 138 180 158 184 212 154 120    128  156 184 162 148  180 158 140 130 210 190 152  164 114 236  186 122  134 180 154 166 192 210 158 160  140 136   144  320 174 206 140 194 130 126 168 150 218 206 230 206 148  228 196 176 204 136 166 168 242 190 236 106 166 166 164  226 152 176 182 160 164 196  150 138   154 190 174 186 156 154 174  160 140 192 142 186 240 186 164 130  142 130 164 226 168 138 148 228 374 170 168 218 174 148 156 160 226 184 138  164 192 178 172 150  198 196 160 178 184 158    200  228 170  178 206 166 120 160 164 146 166 262 144 168  86 168   246 142 144 162  158 182  240 160 206 126 154 116   180 134 164 174  146 216 120  194  118  180 174  256 158 174 168 150 212  142 152 182 138  142  194 200 156 206 174 164 72  152 130 238 188 192 152 154  222 158   186 238 190 164 204 150  162 218 158 176  156 112 176 220 164 166 154 230 146 236 100 228 116 188 158 116 166 192 208 120 162 150 132 146 160 180 214 144 176 176 212 176 142 204 164 154 118 226 174 304 152  142 162  136 122  166 116 184 138 164 214 154 140 210 222 158 168 300 136 142 134 144 172 206 190 172  146  128 156 164 188 194 160 172 160 208 194 184 160 112 152 256  140 274 206 176 178 184 192 178 170 138 160 160 136 180 178 166  148 162 148 222 152 142 154 164 188  180 138  140  154 160  148  172 142 184 232  148 108 234 216 154 156   162 124 144 182 170  148 156 186  134 212 260 134 176 148 162 182 140  144 152 186 184 236 200 144 164 142 102 162 276 108 156 216 180 162   144 248 151 202 164 172 176 158 148 176 232 180 188 154 152  174 180  166 168 156 136 136 176 192 160 224 156 174 180 278 156 166 174 144 188 148 216 166 176 160 208 166 196 172 164 144 158  124 152 150 144 172 150 158  170 164 206 162  182 184 138 140 156  144 158  144 212 132 196 148 164  184 162 180   172 188  146 170 230 190 146 166 188 146 178 190 152 152 228 172 156 152 136 222  170 156 170 190 240    142 140 174 178 206 168 190 136 154 198 192 224  126 266 196 170 184 164 172 112 164 172  144 176 248 152 138 174  172 192 172 172 140 136 196 152 142 172  150 128 182 166 140 142 198 125 128 202 192 142 218 132  162 236 168 166 152 240 190 236 136 220   172 156 146 164 164  240 162 164   170  186 204 114  228 178 124 204 166 176 168   158 166 192  150 212 152 150 172 198 154 148  168 172 172 180  152 180  172 134 126 148 172 184 224 162 148 77 198 144 262 122 164 174 168 240 166  282 174 218 154 168 174 218 176  172 204 170 178 142 176 166  128 136 212 142 174 156 162 134  152 166 144 152 166 160 160 160 126 194 130 138     172 126 158   168 180 178  180 196 210 166 364   144 186  192 156 220 176 172  180 152 146  200 208 196    140 190 156 186 146 120 254 218 190 148 144 212 210 156 174 156 238  192 160 148  164  198 258 184 160  156  144 170 142  140 156 136 210 184 178 174 150 190 152   192 158 200 152  172 184 128 112 150 152 192 130 150 156 148 154 176  200 168 128 130 150  164 172 206 182 202  148 164 204 212 280  152 176 190 216 166 142 174 142 200  136 128 174 166 158 170 118 202 216 134 204  154  164 150 146 160 174 156 178 150 170 160 162 202 162  160 184 160 180 150 174 154 186 222  146 176  134 162 192  172 212 174 152 172 166 178 178 157 218  156 196 140 156 172 148 152 190 168 212 122  154 134 194 140 158  156 190 186 164 166 174 138 119 184 146 142  116 184   146 150 234 184 208 148 172  184 286 226 168 154  148 124 208 134 222 214 188  238 184 152 162 132 168 120 196 152 252  216 164 196 152  184  150 158 168 196 142 180 170 134   194 180 108 156 136 136 146 152 162 170 162  154 146 158 164  168 192  134 254 148 142 160 228 280  164 168 146 152 164 166 166 168  184 166 198 152 144 180 152 186 148 230 182 162 180  158 120 192 160 200 192 158 178 178 130 190 156 182 272 180 172 148 164  188 198 138 152 146  152 170 160 158 196  160 200 176 208 142 130 158 180 170 164 172 200 136 212 152 118 120 164 232 196 150  116 158 180 160 156  164 160 150 146 142  170 150 148 136 164 140 162 152   162 168 154 182 148 170 192 172 124 162 166 168 140 190  136 172 126 138 174 194 168 196 172 160 142 110 124 148 168  150 150 232  144  138  126 156 180 124 126 176 184 146 172 162  166 262 152 126 146 188 194 212   136   176 168 190 182 132 160 206 162 146 154 140 138 130 160 228  90 164 152 134  186 146 172 150 180 130 184  114 172 140 150 228 154 182 166 130 180 266 148 110 158 150 168 208 168 162 132 162  176 166 118  368 186 172   188 148 160 182 170 194 176 210 172 184 224   168 146 174 190 148 200   142 154 128 110 156 154 158 150 162 152 212  150 150 220 186 162 112  170  108 132 176 88 170  176 170 156 188 174 168 126 170 168 172 138 180  196 134 132 144 202 150 154  156 162 184 156 170 152 184 152 190 176 166 188 150  116 156  176 154 154 206 196 142 122 154 204 184 140  176 204 160 138 158 170  170 156 282 182 178 86 120  168 158 144 144 130 168 178 152 188 156 164 128 134  152 282 144 176   180 232  140  176  126 238    168 124 158  166 144 174 110 160 182 150  98 144 176   198 164 150  210 154 248  184 170 168 186 152  132 170  136 174 154 172 172 142 170 158  162  152 178 160 142 164  130 158 208 180 198 188 128 174 120 140 162 160 186 128  158 124 166 106 154 160 314 148 142 142  136 164 162 156 192    190 160 132 158 156 158 152 180 170  242 176 146 198 140 104 188 212 164  212 186 184  138 164 152 174  238 164 188 156  216 162  154 138 194 170 80  220 180 190 148 200  142 190 152 138 172 222 150 150 164 150 204 176 260  158 156  218  178  188 200 116 148 170 152  112 188 140 192 202  156  128 142 222 256 240 144 176 180  160 232 174 146 166 170  174 134 168 158 140 176 160 228 142 168 128 142 174 142 186 168 160 170 178 184 144  136 172 162 108 150  150 132 166 166 256 150 178  168  162 144 162 184 202 266 176 208  136 222 152 174 194 108 174 150 158  192 158 148 172 136 120 172 136 134  144 160 148  164 188 148 142 166  160 122 160 214 218  136 160 156 126 168 132 148 206 142 160 170 184 154  134 152 176  126 152 186 144 168 140 174   156 210  158 160 146 200 200 142 134 134 146  172 212 140 100   182 182 128 236 144 230  228 158 180  146  142 156 120  170 140 264 152  138 256 170 188 168   136  170  108 172 238 164 106   132 168 144 170 290 134   156 216 154 180 134 212 152 142  112  160 184 128 128 158 160 124 216  180 136  156 146 168 136 248 138 176 174 190 156  166  134 146 138 146  164 138 154  154 194 136 180 144 184 148 186 188 158 232 146 190  178 172 156 134   196 186 196 132 150  180 198 144  172 106 186 170 168 168 188 174  190 146 170 120 228 260 184 150 320  176  154 150  200 200 162 160 170 176 198  162 130 146  192  188 182 232 158 144 156  254 210 220 160 184 134 126 184  122 156 150 182  164 168 160 126 186 184 178 138  244  174 180 160 200 244 236 166 92 208 162 158 166 160 168 172 222 140  180 152 182 164 160 160 176 188 168 140  130 190 186  240 144  168 172 152  182 146  166 124 148 184 166 164 172 140 158 176 156   156  198 162 150 156 116 212 144 202 190 148 376 136 162  212 184 124 204 218  148 176 198 206 150 180 178  116 152 234 232 306 154   172 114 150 248   140 172 190 146 154 166 146 192  168 188 156 264   244  122 186    158 160 188 188  166 112 168 194 176 186 152 180 184 172 166 150  156 150 192 158 158 168  126 194 158 178   192 162 135 106 160  182 164 168 122 172 188 152 148 208 190 120 130 158 139 170 170 234   154 174  144 232 180  132  210  212 266 180 168  192 196 164 144  164 192  208 162 168  152 178 200 174 166 164 236 160 210  192 162 176 166 148 182  144 160  160 164 158 152 138 180 156 166 158 200 212 214 158 154 168  204 202 154 148 156 152  144   140 170 200 174 60 206 136 134 210 166 120  164 188 140 144 148 144 166 164  212 164 154 154 186 154 136 190 166 184  134  150 240 176 118 208 156 164 190 196 134 164 158 180 142 142  220 184 152 156 184   184 96 162 170 214 166 148 130 140 142 152 152 110 176 188 174 204 152  144 134 172 220 122   142  146 180  152 184 178  138 150 140 152 142 168 146 164 184 144 140 154 184  80 202 218 172 136 136 228 154 160  172 142 156 178 232 192 172 196 238 132 154 128 200 272 144 218 152  192 176 224 152  162 192 156 160  140 168  156 146 152 170 138  196  188 198 176 172 142 158  304  168 274 142 136 206 104 164 228  160 126  174 150 154 164 132 120 136 146 182 164 192 150   128   108  144  220 170     130  178   112 192 194 126 128 132 124 156 174 160  178 146 148  158  130 182 190  150 168 166 152 176 142 128  152 130 160 152  132 172 180 196 180 146 144 180 176 178 422 142 146  174 134 188  120 142 192 174 150 192 218 118 172 166 164  154 142 172 210  166 192 152 216 124 188 208  168 218 186 206 140 216 170 154 162 126 182 164  120 176 144 152 158 240 146 200 118 106 160 168 148 180  154 164 162 154 172 168 156 200 182 166 90  156  184 156 148 172 168 162 130 118  102 180 168 178 180 240 138  178 162  176 136 144 146 174 214 166 248 162 186 150 168 170  166 172 154 236 198 226   224   146 148 164 164 157 214 172 202 220 166 144 162 170 180 144 240 184 206 184 146 186 144 230  186 168 168 170  126 188  218 164 172  164 156 98 146 150 164 156 134 156 144 144 206 148 128  200 164 146 134 142  154 220 150 106 168 116 138 200 134 124 142 174 138 146 144 206 154 154 194  138 152  188 156 154  196 140 224  140   152 164 110 180 134 120   156 210  138 132 170  152  140 148 216 170 172  140  134  170 316 224 244 98 144 174 110 112 206 134 180 254 166 152 146 170 168  206 177 138 204 172 140 150 152 160 170 128 190 130 176 142 263 142 182 134  308 112 184  126 144 188 154 180 160 180 140  140   172 202 144 140 192 142 148 134 156 162 188 220 160 188 142 168 152 228 156 118 180 148  154 166 94 154 186 140 188 158 142 146 156 184  142 146  172 162 150 186 164 152 120 164 138  188 168   182 230 210 154 160 146 204 184 158 156 154 128 184 152 180 152 174 160 194 294 168 212 126 168 180 162 114  174 202 184  162 144 230  220 174 132 204 162 174 164 160   188 144 118  160 186 126 140 134 228 170 142 198 152 212    416 152 190 158  136 210  180 156 144 200 170  188 150   142 158 184 160 210 182 186 164 178 236  200  232 158 248 200       138 164 155 184 198 146 122 158 170 132 170 98 204 112 224 148 220 168  184 164 206 192 120 228 180 128 212 112 150 160 226 164 170 150 172 110 166  134 150 174  162  162 130 188 192 204  130 132 176 292 128 136 214 144 154 130  220 148 208 172 128 192 204 166 166 212 144 158 162 190 196 184  186  178 164 206 118 138 174 140 156 194 144 180 144  154 162 188 142 196 176  244  230 194 172  196 180  144 148 148 164 178 154 172 150 114 168 250 160  150  206 150  162 174  150 236 144 184  168 162 190 246 186 198 148 154 164 192 136 144 170  162 126 172 152 242 160 156 168 150 122 252 188 166 172 130 148 168 218 152  168 84 142 162 186 186 208 144   158 156 212 180 156  176 134 174 196 172 128 158 128 122 110 128 214  166  304 170 162 156 160 128 142 202 146 126 192 156 178 206 150 114 176 276    156 166 120 174 154 150 186 180 178  196 130 152 164 168 140 148  170 114 174  144 152 148 294 182 146  170 128 154 162 170 182 164 190 142 174 152 196 172 168 148 150 142 260 164 156 134 218 136  188 176 200  192 162 192 118 152   140 184   200 174  166    138 170 154 150 112 160 162 176 150 166 154 186 186  170 140 154 124 140 188 146 324 128 176 198 158  168  188 120 166 148 128 138 148 122 222  146 185  126 216  160 160 204 166 172 150  166  140 148 158   150 166 180  192 218 160  136 172 222   186 160 192 194 190 158 114  200  110  154 150 164 120 158 158 234 126 158 166  252 184 210 152 192 168 148  178  162 128 192 136 136 138 124  172  210 142 138 166 172 176   244 191   180 122  180 176 176 154 138   198 162 178 152 160 142 162 148 230 134 140   162  156 274  178 146 160  156 184 146  246 168 160 152 136 144   140 164 178 156 140   140 280 184 150 220 146 190 128 190 190  174  122 184 154 168 208 252  152 142 152 152 130 172 212  178 166  176 150 214 170 182 134 222 162   170  154 170  172  146 204  130 166 196 160 148  162 138 178  150 168  300  166 122 200 170 192 124 212 126 144 174 220 156 136 148 188 158  158 156  144 160 192 144 218 250 128 146 218 118 122 154 208 192 146  180 124 110 162  218 148 270 188 162 140 184 142 200 222 156 178 172 186 148 128 160 162  182 142 248 198 180 112 250  184 152 208 134 220 178 196 186  212 136 158 206 152 130  190 128 120  228 192 198 192  128   170 132 194 236 150  170 126 156 130 256 184 148  164   172 176 192 240 170 188 156 228 140 196 168 212 166 130 140 160 174 128 180 190 240 180 176 156  158 158 168 176    146 156 178 130  234 208 108 118 158 134 80  118 164 218 130 140 150 166 152  152 188 152  156 182 130 122 148  148 174 136 152 136 178 158 224  168 152  160 142 256 162 252 158 178 152 118 182 174 194  146 186 166  92  160 146 204 304 176 140  114 196 176 150 136 178 170 144 182 174 160 280 238 148 164 160 134  154 132  138 144 96 194 180   156 176 192 196 190 188    152 212 158  160 144 144 134 142 150 166 156 120  164 238 194 184 128  184  142  158 126 158 164 178 160 188 200 86 136  170 170 132 166 166 178 176 164  130 164 176 136   188 162  184 198 168 136 164 160  160 140 140  100 172 160 200 184  122  160 138 192 166 204 160 160 172 308  206 168 162  146 232 174 152 154 148 148 132 186 105 170 206 164 132 146 214 146 104 176 162  122 120 160 110 202 280 140 172 166 180 146 152 174 170 242 178 226 210 144 160 126  174 108 192 184 208 134 170 178 126 130 146 142 216 186  176 144 126 180 136  126 174 156 180    188 200 184 148 172 148 166  174 146 140 188 158   172 142 130 182 152 162 140 126 172 172 134 148 148 176 146 134 144 168 134 148 134 186  166 266  172 115 162 138 218 158 140 126 292 180 218 274 178 166 160 204 158 164 184 138 152 188 150 150 188  210 168 176 168   174 232 190 142 150 180 174 164 176 144 208  110 148 160 204 140  174 162 168 380 196 154 138 164 136 184  126 176 190 188 106 300  188 152 166 196 158 126  146 160 146 164 204 178 260 148 118 158 160 164  166  138 136   170 170 140 212 172 180 162 110  182 144 148 188 148 178 222 150 146 176 138 156 152 160  174 138 166 174 160 178  156 194 172 142 158  180 108 166 160 164  182 172 142 206 184  170 130 172  115 214 160 190  172 158  152 192 152 144 132 196 196 150 100 148 166 154 170 166 206 188 130 204 186 160  166 164 190 118    186 184 168 136 258 122 218  134  170 156 140 160 164  106 140 156 174 140 174 176  174  118 156 136 164 148 146 168 188 132 140 176  130 128 170 196 134 160 188 180 172 152 116 158 178    154 126 156 124 190 180 150 194 162 148 192 160 322 134 126 178 138 168 172    224 168 246 176 158 158 160 156 142 172 188  106 180 168  174 160 154 150 192  154 150 186 202 152 196 194 252 148 162 168 134 168 202 140 216 160 202 122 150 164 214 112 170 180 148 146 188 164 152  140 166 220 210 154  160 92 132 142 182 150 192 194  144 120 312 156 178 186 168 144 198 168 166 182 172 150  180 146  158  140  172 182 172 152 148 172 142 184 156 170  152 190 158 156 222 148 174 162 286  192 178  182 146 144 124 164 245 190  154 182 174  150 166 184 154  168 376 120 150  116 156 172  166 140 114 194 136 182 244 184 110 150 428 216  160 164 124 194 124 162 114 188 190  182   178 154 158 214 108 150 172 228 156 200 168  164 200 180 146 146 126  150 140 164 190  196 152 186 182 160 134 110 168   142 152 156 140 166 152 138 142 196 138 140 174 148 168 208 122 194  130 160 148 132 164 168 158 138 164 152  200 224 172 156 174 176 122 142 152 154 132 150  158  146 138    154 166 160 156 144 144  110 170  136 196 156   156 140 164 168 144 156 202  190 184 160 186 142 176  188  164  172 158 156  156 134 172  184 228   132  174 188 104 170 166 162 160 176 162 168  144 134 148 170 188 136 172 152 164 146 138 128 154 100 154 170 144 174 170 152 124 178 172  170 160 160 178  166 164  208 200 138 202 106 208 158 158 128 128  172 182 140 184 130 158 180 216 140 208 150 190  142 176 176 120 182  170 174 164 178 156 236 212  164 128 192 166 136 186 168 174 200 142 132 118 162 168  154 176 160 138 182 130 102 118 184 138   142 104 164  94 192 198 164 152 152 300 212 166 196 166 176 116  182 174 178  168 88  156 106 198 192 138  202 154 128 146  204 208  140 138 148 200 166 172 158 160 144  158 194 194 134 138 158 148 188 188 186 154 146 142 162 144 142 130  166 166 180 112 188  396 170 126 116 194 142 176 190 166 192 170 144 196 228 137  140 128 176 152 164 156 112 204 150 174 202  220 164 170 122 160 138 180 196 234 176 156 188 188 164  164  184 138 160  182 174  156 182 120 232  188 138 144 196 128  208  152 152 162 168 158 190 162 214 122 134 150 142 186 190 218 182 166 154 204 182 162 206 134 164 158 146 174 132 182 234  132 182 174 124 178 170 208 152 152 144 156 198 136  228 176 162 156 178 180 182 194 220 142 146 178 158 188 218 172 162  90   186 148 168 124 126  172 138 166 200 158 226 220 152 204 154 132 130 156 144 94 148 170 178 156 136 172 194 210 206 190 146 142 130 246 162 166   156  146 164 160 162 198 136 158 152 154 178 150 166 156 162 178 160 168  172 146 162 124 162 144 130 162 152 140 138 150 208 150 180 126 104 138  160  184 196 154 134  146 146 166 134 144  150 148  278 190 180 192 180  162 156 142  132 152  154 162 168 174 138 150 162 146 188 170 186 150  130 142 138 154 146 182 162 170 174 116 200 144 188 184 182 142 106 134 140 214 146 186 194 164 172 142 148 162  160 126 200 150 102 128 166 168 154  164 156 168 144 168 116 148 148  148 138 156 158 156 184 172 156 166 176  168 138 144 148 216 156 136   166 178 264 158 154 170 204 234 212 188 148  140 170 98 188 158 144 134 138 158 126 110 182 160 156  186 140 148 138 156 194 152 170 156 176  130 176 198 152 180 148 184 150 153 154 138 128 130 206 160 174 176 188  150  156 172 164 124  168 128 164  178 192 160 182  182 212 206 194 154   130 184 146 188 144 166 142  154 226  158 250 152 144 174 212 124 188 172 140 210 220 172 130 136 204 176 170  146 148  162 158  170 162 154 130  110  170 216  140   164 190 144 204 160 154 144 156 140 160 196 164 228  174 156 154 120 152  144 152 188 148 172 162 134  132  188 154  142 186 186 200 178 160 160 148 178 132 152 164 152 184 194 130 146 190 182 168 110 112 118 170 148 160 154 126 128 110 144 140   154 146 120 184  182 164 170 222 188 188 154 138 168 158 136 152 198  172 162 188 124 116 222 150 154 128 172 194  158 168 160 118 150 166 138 154 136 180 130 162 148 168 160 148 180 162 180 162 210 154 176  148 128 148 162   156 136 144 146 162 192 374 184 170 150 112  172 148 142 140 156 186 160 212 110 178 170 212 210  138 156 136 228 142 162   192 176 138 144  126 150 146 196 246 142 144 154 144 164 200 122 212 164 146 212 160 166  204 117 172 162 132 172  174 140  132 162 126  144  144 168 154 152  182 282 168 190 144 152 104   150  216 142 138 164 160 168 154 150 156 126 164 180  214 148 176 128 132 170 142 142 150 148  174 158 148 148 142  134 160 192 168 186 168 150 170 204 188 180 154 198 166 144 120  184 216 128 270 202 134 136  166 122 166 138 150  152 146 166 148  178 180  166 240 166 190 154 148 154 164 156 128  136 130 128  216 142    162 144 190 170 138 176 134 156 158   146 196 210  246  108 168 108 148 212 140 142 152 172 144 170 140 166 226 188 222 182 128 186 248 182 150 152 166  174  156 158 170  142 202 134 174 166 114 162 174 184 210 148 154 196 236  202 160 176 154  180 120 162 138 238 128 178 144  162 168  166  134  170 122 176 170 160 140 182 212 182 156 164 150  168  152 162 150 140 156 170 216 184 160 156 140 170 148 196 166 174 162 166 144 150 154 212   98  186  164 210 100 190 224 140 146 158 108 180 162 266 166 140   192 148 164 178  194 240 192 160 150 162 192 174  180 176 162 130 156 154 150 164  180 242 158 194 150 172  146 198 200 168 156 146  168  148  140 294 154 222 208 200 160 152 164 152 168 126 128  204 204 134  194 150 136   152 166 140  140  160 168 60 164 134 136 140 138 164 164 138 140 112 168 166 164 178 194 150 158 160 174  164 196 160 170 98 128 240 178 210 214 136 174 160 180 146 160 134 152   146 112  160 116 226 180 168 178 164 130 118 136 218 170 158 160 162 190 136 146 176 152 154 156 216  184 122 182 170 104 152 138 148 198 184 148 136  128 158 148 172 154  170 172 194 136 176 140 138 170 176 194 204  176 162 148 110 164 148 196 164 122 118 150 164 164 138 206  150 118 186 156 172 160  186 130  156 150 162 148 208 180 124 168 200 98  174 110 134 160   134 220 92  162 122 178 250 136 166 148 164 238  146 160 202 196 188 128   250 180 128 152 192 144 162 166 200 166 172 114 150 146 220  188   198 156 134 158 134  152  116  170 164 138 188  156  164 196  164 112 152 210 140 156 172 158 140  144 156 128 154 168  168 172 252 152 224 196  148 192 138 142 178 152 124 130 164 86 164 162 130 150   134 158 168 180 154 164 164 162 148 160 186 188 144 136 198 154 144 172 188  142 132 170 124 104 186 250 180 152 164 138 202 140 142 178 116 172  164 152 156 176  170 168 142 146 188 166   160  268 188  138    116 186 122 166 150 126  196 176 164 156 180 214 166 182 148  112 172 136  150 192 164 144 176 172  162 142 144 232 212 144 210  160 146 144  176 166  196  248 172 146 136 166 148 140 234 188  152 138 134 120  156 200 176 162 172 174 186 170 214  174 156  194  160 158 130 226 126 128 154 152 230 150 232 276 184 80 172 160 196 156 148 256 166 156 188 134 134 176 154 174 172 174 156 138 188 152  194 158 138 162 188 134 148 192 154 188 162 142 268 114  170 162 182 150  156 158 150 134 196  168 212 134 170 170  224 168 126 134 196 174 164 166  124 144 122 126 152 188 146 164 216 214 210 164 136 114 154 198 206 152 200 220 130 198 180 262 140  170 198  162  188 164 138 176 184  118 164 178 192 174 178 188 162 176 300 178 144 102 144 142 144 158   206 216  160  138 156 100  138 144 134 146 144 208 174 140 150 152 152   164 184 154   212 154  144 174 166 128    162  166 190 146 180  132 268 180 126 206  144  166 100 168 184 164 111 160 160 164 174  156 230 120 244 124  184  140  160 148 138 114 150 136 200   130 120 166 140 122 172 164 198 132 146 200 164 168 162 158 152 138 164 170 134 174 130 162  156 182 148 174 140 140 204 156 122 138 126 160 122 130 148 210 132 134 146 142 182 178 140 140  158 128 134 152 182 138 134 178 154 142 168 218 148  192 120 172 152 170 118 204  174 200 178 124 124  172 128 162 154  172 196 170 136 146 148 168  232 134 176 140 150 150 156 142 130  152 110 134 134 152 136 122 168  208 168 154 190 138 180 166 212 178  156 154 146 174 142 136 148 180 172 172 260 172 168 156 168 120  180 172 152 162  200 197 140 160 202  176 182 176 184 102 164 152 190 128 176 174  160    132 130 138 178 134 148 170 128 216 126 158 224 156 160 164   176 148 152 142 160 172 216 166 190  154  164 146 152 186 154 180 158 138  138 146  140 132 160 164 154 162 166 156 176 140 188 214 152 160  146 138 184 222 140 162 134 182 148 162 140 234 136 130 150 154 154 160 152 142 158 160 184 124 156 128 124 138 156 140 168 160 150 178 152 180 148 132 146 156 158 140 152 172 154 172 146 150 138 106 184 158 100 132 142  158 138 176 132 128 162 162 136 146 132  176 162 178 158 164 136 182 188  132 156 128 146  140 178 156 174 158 136 172 134 160 162 182 148 178 170 122  146 148 150  130 170 172 158  128 150 168 146 158 174 136 154 120  94 108 162 152 150 144 108  142 132 160 200 140   148 170 148 150 138 154 158  136 146  162 164  148 208 134  162 142 210  128 160  134 158 162 160 158 150 162 216 144 180 216 150 162 142 128 150 166 238 132 210 142 184 160 216 162 230 156 146 130 156 124 140 160 144 196 148  162 114 166 212  162 178 156 132 144 172 150 192 182 98 154 172 154 162 174 140 136 144 172 142 180 152 166 168 182 154 146 140 106 166 114 160 132 172 172 124 156 118 214 164 184 220 102   158 150 166 124 110 152 128 156  164 162 158 112 144 224 178 124 152 130 242 140  130 102 162 210  134 196 160 164 112 176 184  110 168 154 164 122 124 136 164 178 144 148  98 130 194  136 146 170 140 148 154 132 174 166 146 160 166 170 164 146 176 144 152 162 184 154  124 160 200 186 200 132 178 158 184 164 136 188 182 142 116 154  152 166 150 136 176 188 178 130 168 208 178 134 186 108 148 286 190 154 168 158 178 140 170 140 160 120 138 134 148 174 184 176 158 144 206 150 184 148 128 134 178 154  122 168 108 146 160  148 130 126 182   122 156  158 158 182 170 186 206 180 106 154 204 108 152 132 144 148 186 166  132  178  184 158 158 158 184 150 170 160  176 152 246 156 160  184 154 162 116 152 146 154 180 144 144 182 174 156 160 148 124 150 138 140 234 180   152 170 172 150 176 180 152 130 156 152 154 152  140 210  182 176 220 192 160 164 164 138 152  174 164 160 168 178 160 190 172 142 176 226 212 166 158 146 176  166 132 122 190 128 158 144  168 178 170 184 148 218 172 138  136 166 180  118  140 132 156 160 106 152 148 106 172 130 206 150 162 126 146 192 168 124 178 184 200 174 136 148 220 128 138  172 184 124 188 140  140 136 188  142 162 160 200 240  172  164  166 178 158 142 130 178 144 216 164 162 150 140 154 128 172   180 160  172  146  160 144 186 122 154 100 210 172 150 188 114 180  150 134 128 178 128 94 160 152  286 160 142 142 174 178  150 144 138 146 154 154 148 112 140 142 160 134 138 178 182 142 128 130 184  84 112 176 208 196 186 166  146  158  136   144 152 174 162 100 170 192  172 144 158 202  166 126  170 170 144 154 194 134 94 154 108 156  166  164 130 110 142 162 192 180 110 126 174 154 156  204 148 152 92 134  174 174 158 168 166 138 180 138 150  132 162 176 152  178 162 204 160 146 192 178  150 122 172 250 122 124 154 154 188 162 158 142 160 90 158  160  300 150 136 114 186 206   142  118 150 148 146 262 140 166  162 188 182 190 224 160 110 108 170 174 234 164 144  140 158 138 174 156   196 116  266 136 174 154 168  104 162 116 118 134 140 192 152 138 136 162  180 176 170 170 148 166 144 164  152 152 104 164 152  158  176 170 136 146  144 168 174 168 168 154 190 188 100 220 168  174 146 128 184 184 188 184  132 184 126 188 122 140 138 168 138  190 146 124 194  138 150 166 172 158 108 144 162 136 146 152 152 154 154 110 166 144 164  206 168 194  176 174 168 134 180 160 116 154 182 98 162 180 156 160 156   140 146 194 278 130 144 186 148 134 148 178  184  146 142 146 132  178 174 158 174 146 126 108 148 196 158  118 110 176 156 154 130 178 154 158 142 182 144  170 146  172 174 142 168 172  136 152 196 124 110 166 160 172 188 150 108  188 192 188 164 164 168 188 168 160 174 178 168 104 150 134 178 152 130 146 120 176 150 126 154  158 144 138 150 170 138 146  152 138 158 160 138 92 212 138 120  108 130 162 202 168 128 150  126 134 142 172 182 182 152 176 144 170 138 180 146 280 122 128 116 186 158 196 126 152 152 138 138 180 134 150 134 156  160 180 162 128 144 158 116 122 172 140 130 160  108 110 166 152 372 150 164 160 152 150 116 156 160 164 182 166 158 154 148 128 196 196 136 172 110 218 180 130 106  190 106 136 180 158 152 194 148 98 164 186 168 156 162 152 116 132 132 124  120 256 196 290 160 198 164 188 174 130 130 170 184 140  134 182 136 180  158 164 140 170 98 148 180 108 144 168 156 136 164   130 116  150 148 152 142 148 166 152  134 158 128 176 158   192 154 240 172 156 142  132 152 92 172  204  156 164 152 174 158  130  182 192 140 132   180 170 156   184 144 152 178 158 158 158 138  148 148 154 150 154 202 156 160 170 130 166 116  134 174 182 134 190  108 180 168   166 158 176 134 146  176 276 104 168 146 174 180 172 200 132 136 126 164 188 86 184 172 152 96 152 162 136  152 154  182 128 240 160 182 100 162 140 152  200 130 138 166 158 188 150 202 142 118 204 158 140 100 184 220 190 140 154 202  116 176 116 172 164 212 154 158 182  136 134 156 124 176 138 144 158 180 152 136 154 190 174 200 174 164 184 194 148 170 176   162 140 186 140  158 158  150 104 202 176 168 204 170  148 162 152  146 158 184 176 164 154 164  174  84 174 152 168 160 118 154 242 122 208 264 154 128 138 172 128 180 160 172 176 168  158 148 154 142 128 146 134 200  108 140 152 152 140 218 104 134 168 166 160 156 114 154 178 218 166 156  204 162  114 142 154 156  182 156 160 122 154 180  148 156 144 160 144 164 162 146 172 244 134 162 98 164 150 138 156 192 200 168 178 162 156 162 154 166  164 184 148 160 170 152 184 148  152 166 148 152 160 140 176 132 132 150 142 146  156 108 152  156 128 132 148 154 132   140 184 92  184 156 186 184 142 142 168 130 160 170 104 152 166  122 188  146 184 208 150 132 168 142 152 176 148 164 144 192  174 146 150 120 200 162 136 150 118 144 160 146 136 170 152 162 196 146  180 138 190 136 108 150 152 100 148 136 192 124 136 120 162 152  164 146 148 200 168 188 130 130   144 168 122 146 138 190 180 164 136 134 176 176 162 192 160  136 142 138 120 124 146 132 190 160 162 158 92 220 144 136 168 164 146 176 188 158 198 130 152 180 186 126 184 176  162 156 122 138 166 184 108 130 164 136 188 126 162 140 168 124 152 202 174 168 132  180 184  148 124  192 144 142 156 148 156  184 144 148 132 160 158 138 154 144 182 156 136 144 244  158 164 176 104 224 164  204 302 152 156  118 186 182 174 124 140 168 142 130 132 194   172 164 128 276 118 158 98 156 218 156  142 152 168 118 158 146 148 162 156 150 198 148 150 110 146 118 156 158 152 200 158   164 180 146 218 156 122 146 135 116 148  140 154 214 188 158 118 198 160  128 180 132 148 180 154 102 130 146 148 142 160 126 184 168 154 150 172 130 160 122 234 160 170 132 264  142 114 192 184 178 156 98 172 116 114 196 178 160 140 166 164 130 232 136 172 234 178 130 90 128 114 192 186  150   158 144 172 152 178 210 164  152  144 168   146  150 122  166   180  109 138   184 140 128 138 152 134 232 184 164 148 190 108 152 184  140 216 196 126 160 180 158 174 106 162 146 150 152  128 186 146  133 138  156 164 156   166 114 180 128 176 150 138 166 188 192 172 130 110 188 138 130 80 116 118 162 140 164 108 102 158  150 158 178 156 136 128 128 160 160 204 100 176 182 188 178 200 162 124 162 152 210 218 190 162 118 196 108 196 188 188 138 160 156 178 132 154  130 180 128 144 246 152  248 134 152 146 168 136 130  188 168   150 190 166 136 194 232 196 162  164 104 166 140 186 186  116 166 198 126 152 132 184 156 158 128 124 168 168 146 166 160 192 152 188 180 114  166 150  92 124 96 180 102 142 164 142 178 148 158 154 164 140 88  204 148 106 186 158 172 130 188  80 132 188 172 114 168 134 168 170 150 172 268 124 156   164 114 144 116 198 120 140 112  114 176 188  162 114 276 162 138 164 138 190 192 138 164 248 158 174 95 160 178 208 138 120 192 122 144 170 192 132 198 164 146  148 116 102 134 188 166 164 150 112 94 160 224 136 88 136 204 196 144 172 156 204 156  146 166 242 94 162 140 158 114 196 157 234 110  150 164 174 132 130 126 144 148 156 118  116 162 158  168 136 164 176 144 176 140 132 196 152  130 156 180 136 120  180 168 152 176 196 176 196 126 172 168  160 148 166  121 146   142 202 112 140 164 170  190 142 148 196 144 128 127 148  146 140 190 144 138 170 152  156 148 90 156   156  145 152 160 88 160  130 126 124  154 156 174 160 192 112 128  172 124 176 142 136 168 148 158 100 136 152 168 146 168 256 192 154 164 122  138 222 130 194 264 150 126 172   112 148 124   168 168 152 160 94 110 156 142 112 132 164  170  96 156 126 196  144 164 156 140 154 168 144 162  148  180 92  154 172 154 148 126  222 186 192 132 88 100 134 108 220 96 120 136 106 166 140 158 172 172  264 146 166 150 172  222 154 148 196 136 158 120 146 142 168  166 160 150 196 204 156 166 192 114 140 196 160 142 170  142 132 156  142 100 152 160  118 158 144 188 148 73 192 130  122 164 164 150 150 172 212 146 150 188 150 136 126 154 136 110 126 180 140 232 118  216 140 160 152 134  152 240 108 196  126 144 108 100 180 148 128 124 180 106 144 124  104 132 192 172 140 154 184 140 172 174 94  108  164 150 144 140 112 136 206 204  150 144 164 168 154 114 168 146 158 106 144  118 182 180 154 120 206 190 156  166 156 146 184 90  152 186 140  100 134 156 90 116 90 136  100 102 158  182 168  118 164 144 136   112 124 176 194 156  178 102 152 150 176 162 112 124 160  138 184  128 172 172  124 152  164 200 152 126 130 118 144 176 152 162 152 108 166 192 152  156  120 178 154 164 130 148 160 176 132  110 128 126 140 84 144 160 126  140 114 110 208  136 130  198 168 146 174 172  216 108 146 144   172 152 208 144 176 126 144 134 152  122 142  116 106 230 152 144 136 148 156 186 182 208 160 152 172 114 142 130 138 168 126 158 212 168  102 196 192 152 162 124 94 184 168   143 240 156 164 188 110 140 146 158 180 214  172    160 112 240 160 136 134 138 152 112  132 170 164 152 106 136 180 200 140 164 184 164 172  176 184 180 142 144 176 156 158 136 164 100  152 180 134 200 174 114 144 156 128 118 156 148 110 132 148 156 108 178 200 212  142  168 168 148 142  164 156 120 136 172  156  158 144 146   134 198 192 112 132  136 180 122 132 212 160  160   178 166 128 156  150 92 114 184 168 106 168 134 122 158 210 158 212 204 158 170 140   158 164  148 100 138 184 96 163 116 126 108 172 148 112 120 148 188   180 184 196 133 150 166  114 174  112 152 118 124 168 180 152 176 116 196 164 156 166 139 132 204 204 208  160  120 176 148 122 114 92 374 126 126 172 204 158   204 136 128 156 130 122 136 140 98  180 168 184 208 142 114 150 168 166 98 120 156 142 116 110 164 152 134 116 168 212 156 98 118 130 136 148 104 128 161 200 146 150 134 84 112 122  144  142 134 192 104 180 200 192 164 130 172 118 136 180 130 188  200 174 128 186 144 202 160 172 126 126 116 150 122 90 156 184 106 166 204 124 146 176 144 208 121 148 166 96 164 162 138 208 136 114 92 140 100 149 152 142 132 220 126 120 120 158 118 132  104 152 124 150 160  138 158 144  150 200 94 124 96 116 144 192 132 132 142 130 106 178 156 134 198 117 130 212 176 152 184 140 158 110 156 134  176 240 206 102 164  166 92 158 156 180 98 144  172 152 152 192 238 190 108 152 166 146    184 164 212 114 98  120 92 184 180 172 200 170 138 150 202   168 160 118 224 156 114 106 128 200 110 154 180 140 102 174   188 176 210 176 224 118 80 172 102 128 172 152 196 132 110 150 154 148 140 112  142 176 180  128   216  106 243 124 144   180 164  216 160 172 128 106 140 146 152   160 166  110 112 156 114  182 148 128 160 116 210 124  144 128  94 190 126   144  180  112 160 144  168 150 162  106  122 144 162 100 120 148 98 220 212 158 200 160 110 124 134 174 134 108 178 154 148 124 164 246 310 148 212  164 128 116 152 154 132 192 172 170 156 216  168 126 120 142 148 170  170 112 140 103 160 166 180 128 216 180  158 180 160 208  138  136 248 220 150 222 127 130    164  117 148 150 156 152 120 95 158    140 170 124 164 102 104 204 150 204 216 344 134 154 174 180 152 154 122 88 156 158 120 150 184 192 118 140 148  132 118 138 122 136 130 114 114  112 106 132  164 132 130  102 188 184  160 154 190 146  162 152 144 164 166 148 120 162 122 192 124 166 140 108 152 148 286 164 130 268 148 158 192 130 152 172  182 164 160 152 114 152 184 128  100 164 118  126 136 168 250  122 112 204 160  228 100   174 144 102 148 132 164 142  152 178 158 184 146   108 144 90 128 172 118 190 144 142 228 176 196 156 140 156 132 124 134 160 148 148 158 148 164 100 138 160 156 148 106 178  164  136 169 108 208  168 200 172 138 128  132 152 180 152   126 166 144 168  160 154 190   120 172  204 202  110 188  184 196  146 132 114 120 176 156 168 180  148  184 182 144 170   110 160 160 130 152  152  126  126 176  146 190  148 170 142  172 108 164 130  104 212 142 162 184 176  152 102 206  94 126 236 162  110 186 142 180 182 196  114 158 138 144  172 176 174 178  176 206 140 200  168 150 188 138 168 252 180 142 172 124 144 116 166 130 128 234  120 130 60 150 140 140 200 160 196  164 168  128 195 120 90 112 156 104 140 124 194 210 138 112 118 148 160 106  170  156 182 160 144  140 96 140 144 168 184 270   192 104 152  110 196 150 176 154 148    156  114 168 220  190  170 106  140 130  148 100 220 136 213 170 152  152 114 128 192  136 196 156  150 252 178 160   116 113 94 162 196  178 114 156  118 140 140 88 148 136   152 126  114 180 168   160  256   192 110  152 96 100 140 180 136 136 140 312 174 172 200   152 148 118 174 134   108 174 188 164 236 130 176 136 160 108 122  162 132 212  130 118 96  152 224 98 142  176 154   118 172  132 160 184  126 168 122 280  148 184 136  216 168  156 168 148  168   92  164 156 174   130 188 128 140 120 136  160 148  186 158  128 152 190 152 158 164 204   220 148 222  
3 98 92 164 100 92 172 104 200 118 106 90 78 90 74 124 134 90 104 96 80 84 86 104 84 78 76 110 104 82 90 122 144 88 78 94 108 86 100 116 88 94 102 98 88 76 98 120 130 86 94 96 90 122 116 82 86 72 104 72 134 96 86 136 162 104 148 98 96 134 76 80 80 100 92 84 100 88 86 136 106 82 86 88 164 84 146 90 80 94 128 90 106 90 100 84 122 102 86 98 98 138 98 102 98 118 98 92 118 128 84 90 82 110 86 94 106 86 92 100 84 84 86 104 86 104 86 78 86 104 80 92 104 84 88 108 106 162 102 78 108 92 106 118 84 98 90 96 80 120 80 90 64 136 108 200 82 96 84 72 84 148 146 106 96 100 82 96 82 94 106 100 82 108 100 108 88 94 90 122 168 164 98 72 160 106 100 114 72 82 98 80 88 108 126 86 100 98 80 88 106 96 88 104 120 90 116 146 82 94 94 96 114 80 110 88 90 108 100 24 148 88 106 98 70 82 156 88 156 128 104 88 88 110 100 100 90 124 96 146 178 104 92 80 82 94 84 96 96 92 78 94 164 132 160 92 82 82 128 116 104 100 84 212 70 86 170 90 84 86 86 108 100 124 86 76 96 78 128 98 100 94 96 88 82 90 102 150 96 110 86 132 118 166 94 104 104 102 162 86 98 98 92 86 120 88 88 84 106 74 136 78 144 88 84 84 98 104 104 84 98 106 98 76 108 86 76 88 80 76 142 75 90 96 102 78 198 100 120 94 104 84 88 88 86 104 116 74 182 104 104 102 124 90 100 86 164 116 94 86 114 92 86 80 112 82 104 82 110 90 106 110 96 94 100 118 80 90 104 72 144 130 94 108 108 104 72 148 88 86 106 150 86 94 78 90 86 64 172 110 92 94 116 76 90 98 122 186 114 82 86 100 88 98 98 92 190 92 90 72 88 88 150 88 128 86 106 84 168 92 120 94 82 138 84 88 108 110 94 126 88 94 94 84 96 94 146 110 88 102 74 106 94 136 94 94 106 88 82 142 76 128 102 92 114 90 96 82 82 120 120 102 72 102 96 116 138 86 88 102 154 86 124 84 98 92 98 92 136 72 116 102 90 90 96 142 98 100 96 80 96 68 96 142 90 86 132 94 82 94 86 136 158 96 110 92 102 124 106 92 86 146 84 98 118 184 98 86 74 82 98 86 96 98 118 100 88 80 154 98 76 176 110 122 90 80 174 88 106 100 74 86 116 86 74 84 90 86 108 80 90 84 80 164 88 108 106 94 112 82 116 80 102 96 98 100 114 100 108 112 176 104 94 108 92 90 78 102 190 108 102 68 94 112 114 90 136 92 118 82 70 88 154 102 96 84 172 88 82 158 106 74 114 104 166 98 84 87 102 108 170 86 82 86 184 90 90 78 94 100 108 104 84 128 90 110 108 98 70 74 78 80 70 92 146 102 92 166 82 108 92 164 84 92 94 92 76 78 102 166 114 94 118 94 90 88 110 100 108 104 86 92 90 92 116 114 82 88 88 86 178 76 76 92 152 90 162 140 82 86 92 90 92 70 84 116 88 106 72 106 164 84 90 86 94 92 106 172 78 140 98 84 80 142 102 154 84 92 90 92 84 100 104 114 178 82 74 184 90 76 76 92 96 112 108 90 72 88 116 98 98 104 78 74 92 90 182 98 196 82 96 176 94 88 126 84 94 90 80 92 166 70 186 86 126 156 104 78 138 82 124 100 80 86 120 98 90 98 96 88 66 92 128 142 164 76 156 92 92 96 88 86 88 100 114 92 100 100 90 82 98 134 100 88 88 92 116 182 100 172 98 86 120 88 82 84 84 132 96 82 92 98 154 110 102 92 102 84 74 116 150 114 194 144 104 88 194 86 108 176 136 78 74 104 90 84 96 94 116 140 94 94 90 92 94 96 82 74 150 80 106 224 98 90 100 102 90 90 96 94 96 102 88 110 102 94 96 92 142 70 80 130 76 92 120 98 90 144 90 88 94 102 124 70 124 146 104 102 84 180 120 88 74 134 82 108 102 76 104 94 94 86 86 88 132 86 76 102 86 88 96 76 110 76 166 100 94 86 160 92 150 104 100 90 86 166 84 158 96 90 84 86 104 94 178 80 174 160 108 78 88 94 98 84 88 98 92 102 96 126 80 104 102 130 90 98 88 118 102 86 116 78 90 106 80 86 84 80 76 104 90 82 94 78 90 78 80 156 94 92 130 72 96 82 90 100 86 86 80 82 102 98 70 94 110 106 92 110 110 84 82 104 148 130 154 86 86 92 114 98 148 114 88 76 90 94 76 112 82 142 152 98 92 122 84 84 120 100 92 86 120 84 80 92 88 146 168 78 80 104 76 168 110 86 120 140 86 86 106 108 82 80 112 72 70 78 96 90 86 84 142 78 146 96 174 110 96 108 92 124 88 84 138 102 96 88 154 78 86 84 106 96 94 86 80 102 94 90 128 86 86 104 152 152 138 112 90 78 96 100 104 102 132 94 90 78 106 90 90 100 86 92 94 136 172 82 80 72 86 88 82 94 90 80 94 90 174 84 84 96 102 122 84 66 114 94 86 86 88 100 122 84 128 94 100 104 66 112 94 86 100 88 78 78 82 86 126 78 112 130 172 98 90 96 90 100 154 68 160 144 156 106 88 108 106 90 68 96 102 98 94 112 78 152 88 164 86 80 126 92 136 94 136 104 80 138 96 80 94 92 104 160 106 82 76 84 156 126 88 100 142 96 74 84 74 80 96 86 144 88 90 86 84 78 94 76 94 90 96 104 92 96 92 104 122 88 86 98 100 88 106 78 84 106 82 92 84 110 82 144 114 90 88 82 113 90 88 86 158 116 82 130 86 102 82 84 84 86 102 88 78 104 86 86 92 98 106 100 100 154 98 146 96 100 90 98 88 84 118 96 90 86 98 150 82 92 96 136 84 102 96 68 86 88 94 112 164 96 100 90 100 82 92 72 148 92 94 116 100 98 96 90 84 80 130 86 68 112 146 136 182 116 96 72 138 94 86 110 154 82 108 102 96 94 72 100 88 170 94 92 154 60 110 102 86 92 100 92 94 104 106 96 174 86 88 96 178 122 138 100 90 96 134 106 130 90 126 112 92 104 84 140 92 78 96 94 170 108 82 86 102 82 94 104 88 80 76 92 72 76 106 86 98 92 106 90 122 86 84 104 140 118 78 132 118 118 112 128 104 106 104 84 90 84 130 82 134 76 76 114 84 116 96 88 98 92 116 72 106 76 116 92 76 86 74 110 102 114 78 132 74 100 134 98 114 100 104 104 86 86 100 94 100 102 90 140 84 118 86 112 106 86 90 118 84 102 146 106 112 100 90 86 98 84 78 94 100 108 78 88 170 80 176 82 90 146 98 70 78 84 100 110 80 88 110 116 86 94 100 164 114 134 100 88 86 126 108 124 84 94 88 92 132 94 90 112 94 86 106 130 112 110 98 92 180 100 112 100 198 124 118 86 166 96 88 96 102 116 128 88 88 98 112 108 100 96 90 98 80 92 92 94 82 102 92 82 98 106 84 102 112 156 72 88 92 130 114 82 136 90 94 110 94 80 88 94 96 104 100 120 166 114 104 100 110 104 88 92 116 100 86 96 90 90 76 160 84 90 86 114 104 100 98 102 86 76 126 100 84 82 172 76 106 84 78 80 100 98 120 124 106 92 94 88 94 128 84 112 108 96 96 90 140 90 70 108 110 98 78 116 88 68 96 172 74 112 98 90 86 104 86 142 120 110 104 96 96 80 138 94 110 120 126 98 92 102 94 92 160 76 104 106 80 108 138 88 102 100 94 104 70 148 74 120 98 74 86 88 104 82 110 114 92 88 88 92 104 98 90 92 146 90 92 86 138 98 94 112 86 88 88 108 108 104 106 102 82 102 92 80 110 86 82 128 100 98 88 94 86 104 94 102 92 148 92 172 100 98 106 108 144 84 82 80 102 94 86 88 92 78 94 108 112 90 92 82 80 138 94 80 90 78 80 96 100 128 80 94 110 104 88 86 76 90 128 96 80 140 80 120 104 96 104 86 104 90 84 104 90 83 100 100 88 106 86 80 126 132 88 92 88 158 94 116 92 124 86 84 122 88 138 82 98 200 92 100 94 76 90 80 136 86 98 100 84 100 140 104 86 188 80 106 96 84 98 110 120 102 104 104 90 88 102 134 98 90 118 104 84 94 78 144 86 102 86 80 76 100 150 64 86 88 84 100 86 96 84 72 104 164 104 84 86 86 90 76 112 90 92 142 98 92 100 78 118 90 86 86 98 128 90 88 134 86 104 92 72 84 96 144 96 80 84 82 86 92 94 130 110 86 90 76 172 88 80 98 108 160 84 120 144 124 140 74 110 104 90 98 92 104 106 86 142 88 98 70 88 92 86 102 88 88 80 90 124 142 124 86 78 102 82 104 136 92 92 120 102 168 140 102 88 130 98 110 102 82 88 142 88 80 96 100 108 84 76 94 80 108 90 100 84 100 90 108 106 72 100 132 94 104 112 146 86 100 88 88 128 100 90 90 102 146 104 82 88 84 92 94 102 150 150 90 104 88 124 100 134 94 84 106 130 128 110 92 182 86 90 104 112 102 86 76 96 116 94 88 98 84 102 76 90 150 98 100 86 92 114 168 84 98 210 112 150 88 144 76 100 114 74 88 90 134 120 96 84 92 168 92 102 102 96 90 84 142 86 102 94 88 108 82 86 106 78 78 92 104 94 72 112 78 108 94 80 164 96 100 100 96 92 88 150 92 176 98 78 84 92 142 96 86 100 108 88 94 100 112 86 92 82 110 182 96 142 152 92 110 84 94 80 90 92 90 102 132 116 102 84 100 100 100 106 92 98 118 80 88 82 94 102 78 88 100 106 106 144 112 118 140 96 86 98 94 114 70 100 86 84 86 88 82 74 78 184 106 72 84 90 84 98 90 94 84 144 88 92 190 102 82 112 186 104 100 104 76 88 86 202 80 96 84 98 78 128 98 92 84 84 88 98 88 82 100 88 80 80 92 92 100 98 90 82 106 88 100 78 90 122 124 80 88 148 154 102 94 118 92 128 98 98 86 166 160 92 82 138 120 76 92 106 84 96 84 86 80 82 85 86 102 122 82 94 92 110 100 92 80 148 100 106 96 156 100 102 86 120 84 100 104 82 86 106 106 106 94 136 80 90 84 82 72 76 92 86 98 98 66 90 78 108 92 114 126 132 78 92 72 124 94 138 92 96 146 112 64 88 160 122 106 82 124 82 84 84 98 80 102 90 98 112 96 106 80 96 84 106 160 104 90 132 98 86 100 170 76 92 84 88 82 104 96 100 148 106 84 92 128 82 92 84 106 92 100 114 100 116 86 90 128 92 146 174 92 104 100 102 86 134 86 90 80 164 116 144 92 88 102 156 106 148 104 154 86 104 148 98 146 76 162 98 114 98 110 84 96 86 114 88 102 100 88 94 96 100 84 92 102 110 86 168 84 114 82 180 174 106 96 88 94 88 152 112 86 86 72 108 108 110 170 142 110 138 92 78 78 104 98 122 88 110 76 102 126 82 94 100 94 120 70 80 80 100 108 92 98 100 106 70 84 98 108 82 112 104 114 114 92 104 132 86 86 94 112 88 98 90 94 96 176 86 96 94 80 170 142 88 116 104 92 108 90 118 92 90 92 134 120 76 134 86 100 122 108 110 102 102 108 94 82 96 88 92 120 90 108 102 106 78 112 82 86 136 80 166 94 108 156 90 80 104 90 96 98 86 78 122 98 76 98 88 132 94 198 82 88 124 72 140 70 136 100 86 74 96 78 126 96 102 102 96 94 92 90 100 82 102 94 84 84 148 104 94 176 84 98 106 146 104 80 136 86 84 84 138 120 204 88 98 98 110 98 88 90 94 84 82 96 104 112 90 98 88 82 90 106 104 102 100 98 94 94 92 126 106 76 92 68 110 94 92 94 88 80 164 112 94 84 86 84 126 120 96 106 96 82 92 90 86 90 94 94 102 94 94 150 92 92 102 78 110 94 94 88 120 110 92 104 102 102 170 94 94 102 94 156 94 78 84 80 106 90 154 74 84 98 86 136 96 92 112 84 94 106 72 84 106 74 92 96 200 110 104 170 102 94 98 94 118 82 86 108 114 100 118 82 130 102 206 98 86 100 116 130 120 80 88 82 88 124 90 82 72 96 98 72 104 88 96 86 130 82 80 100 100 138 88 96 108 98 100 106 86 88 116 108 88 108 162 74 98 80 78 86 112 114 80 88 102 92 104 96 86 106 106 198 86 76 118 94 96 88 88 84 108 106 102 80 92 90 112 90 112 132 90 110 154 102 84 80 100 100 190 124 122 86 94 96 66 84 80 72 84 150 86 84 92 90 140 104 164 92 168 98 98 66 96 86 100 100 100 104 90 76 108 80 66 134 102 86 90 124 98 92 86 96 92 98 110 80 148 80 96 100 112 84 98 92 110 84 134 108 126 112 90 106 96 90 160 168 94 82 86 106 92 76 88 126 88 104 92 86 88 70 118 134 92 72 80 88 136 104 86 84 98 142 88 82 90 78 70 94 76 80 82 98 100 96 108 128 86 86 158 94 92 84 92 136 110 156 94 88 100 126 116 98 98 92 116 96 90 114 94 88 186 104 98 124 86 104 74 102 124 196 90 78 82 78 70 138 94 142 92 98 90 96 150 94 90 98 112 100 76 110 84 78 72 88 96 124 84 170 84 90 100 78 72 82 86 92 162 104 100 104 86 114 142 96 114 88 90 88 118 90 108 134 82 92 108 94 92 104 160 90 116 96 96 106 82 82 112 78 82 102 70 116 154 82 114 102 90 138 110 92 94 88 110 96 108 84 80 84 76 82 92 162 100 86 92 102 88 172 88 126 84 80 86 88 98 92 68 106 88 88 102 70 112 92 118 94 76 124 80 104 92 78 92 110 82 148 124 82 90 124 104 92 96 88 245 118 84 98 90 90 100 104 96 102 108 100 94 86 160 102 88 120 88 78 108 84 87 80 132 82 92 136 92 158 90 78 82 80 88 86 74 98 108 74 114 88 82 78 90 106 88 84 110 82 96 96 148 88 100 94 70 94 88 116 122 98 136 100 82 86 110 90 134 82 84 76 108 88 108 80 84 104 170 102 90 102 168 90 102 108 106 100 98 86 92 116 86 96 90 102 144 80 90 106 88 74 88 98 88 82 98 96 134 94 76 98 86 98 142 76 98 66 98 94 152 114 88 92 84 84 88 82 110 90 100 84 94 90 92 104 96 92 86 108 88 88 118 94 104 90 172 88 96 90 88 110 84 102 90 166 88 88 92 78 126 106 76 104 86 94 86 94 92 106 74 94 230 134 96 150 88 94 98 92 120 82 90 88 106 70 98 154 90 110 112 92 102 158 214 114 90 88 82 98 70 84 94 90 102 86 96 88 146 80 90 78 96 108 86 162 94 96 94 104 92 88 94 90 96 98 98 130 94 96 148 92 122 72 96 74 108 204 88 110 118 86 96 108 98 88 96 88 130 224 98 68 96 88 92 98 94 102 94 142 86 90 86 112 78 86 124 138 106 134 96 168 84 112 126 83 146 174 86 100 106 86 120 104 106 98 90 106 156 82 96 86 82 176 80 90 122 168 84 150 88 102 106 90 84 138 86 86 104 72 82 100 84 136 78 90 108 90 104 88 92 92 100 120 78 100 88 106 96 154 108 88 110 98 86 148 80 102 106 124 82 106 90 78 92 102 110 94 78 146 88 104 98 144 180 86 82 88 92 88 82 172 86 80 96 124 98 100 90 94 92 76 80 92 78 82 128 80 126 84 100 158 134 68 96 90 138 114 90 94 108 140 86 146 88 82 90 92 92 94 118 98 162 96 102 82 98 100 104 128 102 88 76 102 80 88 96 156 102 138 92 78 100 100 134 100 90 96 82 116 94 84 180 126 90 104 146 86 82 104 98 84 102 170 100 108 102 92 90 106 100 90 86 92 122 166 74 78 86 88 92 90 94 112 102 76 100 92 174 96 98 134 94 84 98 96 90 90 98 96 74 108 100 72 134 104 102 80 96 100 94 116 148 116 74 144 102 100 92 82 106 100 82 116 136 108 96 106 118 82 90 96 162 92 98 102 96 90 74 108 76 104 84 96 88 98 94 92 174 82 118 94 84 92 74 98 116 114 78 92 90 90 104 118 78 114 88 98 88 80 92 192 104 90 102 130 96 78 110 144 102 126 138 92 142 90 86 98 90 74 134 86 104 90 106 70 98 90 92 86 82 150 104 126 146 86 96 84 96 102 84 64 94 92 88 76 114 106 92 82 154 96 90 96 136 86 94 102 74 80 82 86 84 146 150 94 86 88 90 72 76 116 122 96 94 96 120 72 84 84 116 104 88 86 86 90 96 84 78 152 98 156 136 100 82 92 92 142 210 118 94 102 98 102 106 98 90 138 94 92 94 98 82 100 94 118 118 90 80 140 116 184 84 158 100 102 110 86 102 94 90 102 76 76 98 88 70 86 94 172 88 146 104 94 92 116 104 80 134 76 154 98 94 98 194 88 82 98 134 78 84 90 94 110 82 136 110 86 92 138 104 78 98 94 92 102 150 94 122 82 116 142 86 78 84 112 76 106 102 92 110 92 84 104 94 78 116 90 94 84 86 104 88 136 88 100 112 90 112 144 116 76 104 78 106 112 102 148 80 90 88 80 78 98 80 104 100 88 92 90 84 88 118 74 76 80 90 98 112 84 96 80 126 80 90 92 72 92 76 104 86 98 92 172 92 96 160 118 92 84 104 102 104 162 136 124 94 84 90 106 112 104 134 80 124 86 94 142 102 98 136 130 90 122 88 100 98 86 82 110 86 116 144 190 92 92 98 88 98 94 92 96 94 96 104 82 106 98 70 106 124 92 84 132 96 110 94 168 98 102 126 104 102 86 124 100 98 90 92 134 98 96 164 92 84 102 96 108 94 88 76 92 150 190 90 80 108 90 138 92 134 94 102 94 76 88 100 108 82 132 116 102 94 114 110 78 88 102 88 100 96 68 166 86 100 102 108 110 96 100 84 88 96 90 138 90 102 86 104 84 94 88 96 106 134 98 86 102 106 116 86 104 92 92 88 104 94 74 116 134 90 90 86 88 126 88 90 148 88 108 90 82 68 82 78 130 104 104 68 82 92 92 116 102 82 150 126 148 102 100 100 86 96 106 78 94 80 84 144 92 88 96 94 88 110 84 140 74 124 212 102 136 82 86 76 106 90 82 108 106 94 94 96 84 86 108 84 130 102 170 84 88 92 90 82 122 162 122 90 138 102 96 88 94 96 84 94 124 84 80 104 90 98 118 84 108 96 100 90 104 78 168 118 110 86 94 90 182 92 162 100 88 104 104 150 160 90 112 88 150 96 152 92 88 120 82 78 156 114 96 102 114 96 100 94 72 82 136 92 116 96 74 76 138 170 138 104 112 96 94 90 102 182 92 86 94 114 114 160 94 90 86 74 76 108 70 82 110 94 68 152 90 164 84 108 104 106 100 98 82 106 94 90 86 90 98 100 108 86 94 96 92 94 90 74 174 92 84 84 100 83 86 78 78 104 100 86 90 80 138 84 86 86 98 144 100 110 74 90 90 102 90 94 90 84 112 88 74 96 86 102 90 88 102 90 98 94 116 86 108 108 108 92 94 84 116 88 86 126 94 114 96 96 88 78 96 78 84 96 144 70 86 94 78 94 86 86 78 82 106 116 90 76 138 72 96 84 112 114 90 98 92 84 104 118 82 134 90 98 106 116 94 92 92 90 82 96 98 98 76 190 78 114 144 106 88 88 96 96 98 112 84 78 108 70 104 80 92 80 166 142 154 98 104 100 104 92 96 90 78 88 78 98 114 98 94 94 102 92 108 126 85 100 76 94 82 86 98 104 94 124 80 78 86 88 100 106 78 78 92 82 74 68 182 100 102 108 88 118 92 160 92 94 116 128 92 98 74 100 126 102 110 98 106 88 84 82 96 82 190 86 82 154 74 88 96 94 104 94 98 82 88 98 88 82 96 168 100 98 100 114 120 84 92 142 102 88 94 114 100 76 156 92 90 92 92 98 94 80 102 88 102 120 98 80 104 132 102 74 88 128 88 96 86 80 80 162 94 110 104 110 98 84 102 84 102 142 96 120 104 102 84 84 94 100 78 96 82 104 78 82 150 80 90 136 90 86 130 102 98 150 198 104 148 102 88 120 154 152 98 106 84 102 128 100 104 82 94 136 90 106 116 76 92 88 86 150 178 86 152 96 84 104 130 84 90 100 92 92 108 94 86 114 84 78 102 108 102 82 96 96 76 86 96 80 84 102 182 110 92 102 82 102 108 84 92 164 108 92 82 74 86 84 88 96 102 92 140 108 110 88 92 100 118 88 98 102 98 104 98 96 92 104 192 102 84 112 84 96 86 96 112 86 78 80 94 82 82 88 72 90 92 96 88 76 92 90 92 92 94 88 150 98 86 98 86 82 102 92 92 84 124 108 86 84 108 92 96 104 128 124 84 102 108 98 154 78 86 96 82 100 96 84 108 86 132 90 86 82 96 100 80 84 100 140 88 88 90 154 82 112 156 86 162 106 98 96 90 94 84 124 100 98 86 82 166 92 84 174 110 100 96 102 94 108 86 82 116 82 84 130 82 78 82 116 96 92 84 100 82 76 100 90 80 112 102 90 106 88 80 104 104 94 98 106 182 98 96 80 84 86 80 138 82 88 94 114 64 84 132 88 90 94 80 92 116 88 88 148 68 90 152 104 102 78 84 86 106 82 86 106 86 80 160 98 78 78 84 80 100 74 108 98 92 116 148 88 98 122 82 104 94 106 80 88 96 90 86 88 100 94 92 94 86 94 76 70 106 72 76 86 92 184 84 82 128 94 108 98 86 84 102 76 158 74 98 88 100 80 98 92 86 98 86 90 106 126 100 110 96 96 132 118 180 100 106 76 110 96 132 106 156 90 76 78 134 80 102 88 114 82 82 86 80 80 92 170 162 94 86 90 90 78 98 102 84 90 74 80 158 78 84 96 78 192 86 182 90 74 74 84 78 106 76 94 88 84 78 88 72 92 78 80 104 78 140 72 96 82 86 146 90 112 130 90 114 78 100 76 72 76 96 142 148 90 86 104 88 106 104 86 62 92 90 184 108 88 122 96 126 114 90 98 86 88 106 88 84 68 100 88 86 104 88 88 88 138 74 88 94 86 80 106 90 86 112 96 110 100 88 94 94 118 108 110 98 98 88 96 82 98 84 96 86 162 184 78 80 84 76 142 84 164 90 86 144 106 88 162 100 152 84 90 74 84 92 104 78 94 84 104 82 92 92 90 198 128 88 92 86 154 82 104 76 82 164 96 96 110 88 136 78 106 88 82 102 76 92 94 84 122 108 102 84 98 106 88 124 96 98 112 90 104 90 86 176 150 88 90 160 106 80 98 98 82 140 104 74 72 78 88 108 92 94 90 118 84 82 78 74 86 108 90 90 78 96 92 90 86 168 126 80 108 108 102 90 106 118 96 214 70 96 120 82 146 130 118 104 148 94 86 84 80 86 86 78 112 100 84 92 84 76 100 104 92 108 78 88 90 114 106 84 84 112 104 82 94 80 82 90 94 80 88 144 88 84 150 106 70 86 132 106 110 124 98 108 122 108 74 142 96 80 154 116 104 98 88 140 116 178 80 82 98 100 94 96 82 82 106 94 84 78 88 102 96 110 90 138 102 88 116 84 84 102 164 96 72 122 164 100 96 136 94 104 98 68 104 80 108 90 98 86 98 78 92 80 88 98 98 84 96 94 142 84 86 88 84 90 98 180 92 102 88 96 82 140 90 78 102 86 88 80 74 78 102 112 154 98 92 92 90 138 112 140 112 78 104 76 126 132 130 88 96 90 96 84 164 90 104 102 76 96 100 140 86 86 158 92 96 128 98 144 92 90 80 156 142 84 104 96 88 114 134 118 124 88 142 102 96 90 78 100 76 86 84 116 102 82 90 80 90 102 94 104 146 98 98 102 102 74 102 86 76 102 96 68 66 84 106 84 110 134 96 148 86 98 82 80 122 136 114 104 80 84 86 136 82 108 94 90 94 108 88 76 122 84 88 94 82 92 130 114 136 110 90 180 92 106 88 94 144 92 98 118 88 90 106 98 98 110 82 80 88 90 104 74 88 110 100 96 88 104 104 84 80 74 162 88 160 82 86 108 104 88 106 102 84 94 164 88 76 74 82 78 102 84 144 88 102 122 96 88 84 108 88 90 182 94 86 138 92 82 72 110 88 82 80 120 100 82 78 92 90 86 88 82 104 104 86 84 96 90 88 156 168 84 108 82 88 92 84 106 78 72 88 106 86 92 116 132 88 84 98 130 100 94 88 98 156 84 88 96 130 88 70 148 84 70 82 102 100 106 92 98 118 88 88 88 120 118 90 68 152 90 108 76 92 106 128 96 86 86 84 224 106 112 82 80 102 94 133 94 72 90 100 100 84 94 102 138 94 78 90 110 90 86 86 102 94 102 84 84 92 98 142 96 96 88 108 110 80 98 78 92 92 86 98 86 106 88 94 122 78 94 90 94 146 94 102 82 114 90 102 98 74 88 98 88 88 86 94 92 110 102 84 92 80 104 100 162 86 102 106 98 94 106 112 92 80 78 84 96 90 84 98 86 132 102 92 86 84 146 154 96 94 98 124 106 76 98 96 98 82 178 96 110 82 86 86 134 80 196 78 80 100 90 156 136 86 94 94 92 86 94 76 94 112 78 88 94 102 84 88 82 94 96 96 106 112 102 120 88 94 144 92 106 90 110 80 96 92 138 126 104 88 144 98 74 116 78 82 118 102 96 86 96 100 186 92 76 136 86 98 94 112 104 100 172 98 86 84 96 86 82 86 74 82 112 86 96 86 120 90 100 96 174 154 78 98 106 102 78 92 152 90 102 82 106 90 104 90 108 166 106 82 102 80 96 110 96 108 136 96 88 94 104 82 84 80 92 90 104 86 84 80 104 114 120 106 82 86 110 88 104 122 98 86 86 114 94 88 86 100 158 110 90 128 106 86 86 98 82 82 80 86 86 98 124 94 86 94 132 90 98 98 94 192 98 100 84 86 86 96 140 154 82 88 96 82 74 130 92 92 94 94 100 124 94 88 102 76 100 82 108 108 84 98 104 90 94 116 100 108 88 180 78 82 110 100 102 84 118 108 108 102 110 86 86 100 118 94 100 90 96 92 64 100 104 96 132 112 100 102 94 104 90 104 110 100 90 152 78 82 118 82 102 102 102 86 92 84 70 90 128 94 120 138 118 104 96 106 148 86 82 92 78 106 110 142 104 122 84 88 104 124 126 94 82 114 142 130 98 84 92 108 92 142 74 162 106 90 108 90 88 92 106 104 90 114 92 94 102 68 104 84 116 94 86 92 84 92 112 88 98 88 108 102 92 76 94 120 86 102 92 96 114 72 84 88 94 74 112 80 100 88 122 108 90 112 108 94 94 106 182 86 98 100 94 68 86 76 92 82 102 72 108 124 88 88 94 98 102 84 126 82 100 72 126 100 110 106 92 128 96 86 102 98 98 82 108 80 90 114 88 100 150 66 110 100 116 106 112 96 88 98 72 74 98 90 94 72 102 76 80 78 104 140 90 206 100 104 94 132 92 74 144 84 102 86 92 104 82 94 104 114 128 130 102 130 104 166 82 92 112 86 110 114 82 118 88 90 100 112 104 94 102 88 84 70 80 128 140 84 82 92 110 102 102 92 98 96 84 92 84 80 96 78 116 118 168 78 108 88 102 82 98 116 160 90 144 110 116 90 88 74 102 96 76 96 100 90 100 106 98 94 78 96 114 82 98 98 100 70 88 78 90 94 92 86 120 98 108 102 80 92 110 84 96 82 98 84 90 102 90 86 92 84 92 88 94 86 86 90 94 152 104 100 88 104 126 88 100 96 92 100 92 76 102 90 132 82 100 108 98 82 172 130 114 118 94 96 94 84 132 100 102 100 80 68 142 84 94 94 84 84 92 94 74 174 94 88 82 140 86 96 86 86 88 92 98 108 80 88 100 118 94 94 92 104 90 94 94 82 136 98 86 180 100 92 114 106 110 84 166 136 82 78 100 86 64 92 98 150 84 104 114 90 92 118 98 82 98 76 82 104 88 82 108 94 120 118 76 150 72 106 84 94 92 102 100 130 88 100 92 96 72 88 90 90 108 96 96 94 88 90 98 90 108 112 84 94 68 86 84 92 90 88 122 84 86 94 86 110 94 86 184 90 84 72 96 94 80 72 104 98 98 86 84 120 76 158 88 92 84 96 68 109 90 108 70 80 92 80 82 96 82 82 74 78 70 100 96 102 142 110 86 148 92 78 80 84 154 238 92 90 84 110 90 78 96 94 80 190 84 78 96 90 168 98 92 136 94 96 96 96 98 84 106 74 90 144 90 92 114 70 114 116 82 84 116 88 116 124 104 92 156 116 72 86 88 136 94 88 98 68 96 84 132 80 130 122 146 120 86 86 86 100 100 110 104 144 72 82 110 78 82 102 102 92 92 80 106 88 96 98 178 96 108 72 86 86 94 104 90 114 92 122 140 90 90 92 102 106 82 84 108 100 166 90 88 150 78 82 88 116 86 90 76 84 106 92 76 90 106 96 104 154 90 90 84 102 106 80 90 108 94 160 98 108 110 92 82 98 100 94 92 92 154 78 92 148 88 94 100 96 114 84 110 136 106 78 76 102 98 96 72 126 100 160 92 80 98 152 78 92 104 126 94 80 144 94 98 86 154 90 96 82 86 128 98 102 72 102 88 94 102 106 92 88 118 90 90 80 84 82 84 74 92 118 106 104 94 66 226 88 90 110 74 124 94 102 94 100 98 92 102 118 106 114 104 100 136 94 84 88 98 80 108 82 98 96 90 94 82 116 76 100 160 90 94 96 80 98 122 92 84 172 108 98 86 86 96 104 106 102 78 74 114 108 108 152 112 116 108 96 76 92 102 78 122 74 86 106 82 146 116 112 94 106 76 114 124 132 100 90 84 84 192 84 90 102 92 108 98 86 108 80 104 94 88 120 86 104 102 76 98 90 86 90 92 110 110 94 104 100 112 96 140 84 118 86 78 88 84 86 90 82 78 148 130 90 150 98 98 92 124 90 152 150 90 110 100 102 84 94 190 82 94 102 96 94 88 86 72 102 96 96 118 100 106 88 92 102 72 146 116 82 82 174 82 96 106 106 94 80 106 66 92 148 104 208 80 118 118 94 90 90 162 108 84 146 78 82 84 108 104 92 98 86 100 100 84 100 80 144 120 80 82 152 96 102 84 84 88 108 110 88 102 98 80 92 92 78 80 100 90 74 82 126 94 122 144 128 78 176 90 94 102 94 92 108 92 134 88 72 176 114 94 92 80 144 92 96 110 90 132 118 100 126 100 100 114 106 106 176 76 90 86 100 86 156 88 104 80 94 84 80 102 106 102 116 100 82 180 82 88 128 88 72 102 92 112 68 86 98 84 114 90 116 76 90 106 132 86 78 74 144 102 84 76 138 86 94 80 108 104 76 100 80 102 90 100 144 94 88 140 146 118 200 70 74 116 98 96 88 82 106 90 80 114 84 152 128 80 74 88 84 82 138 84 84 134 78 162 90 120 90 90 82 114 82 94 86 106 84 76 158 84 90 78 114 101 88 90 90 110 76 106 98 90 100 94 90 112 102 84 92 82 192 108 104 104 112 118 104 86 186 96 86 108 80 94 100 84 88 118 154 84 86 90 118 104 114 180 86 124 104 98 80 142 80 88 82 98 108 92 78 90 120 86 86 96 100 96 104 88 94 82 100 196 106 98 84 132 106 98 98 106 98 114 92 148 110 90 144 96 102 104 82 164 126 84 106 78 108 96 82 92 150 146 74 96 90 100 100 96 84 140 180 84 96 96 86 94 92 90 90 78 102 152 94 88 84 110 90 92 110 68 84 110 80 80 110 118 100 84 104 86 80 116 98 86 102 76 136 92 84 82 84 86 92 94 100 94 84 86 90 104 96 96 86 88 84 128 146 78 108 104 94 136 104 94 86 82 74 108 106 130 92 102 108 84 108 108 90 134 92 132 82 108 78 102 88 98 96 100 86 106 84 100 78 64 108 170 182 78 80 96 92 86 170 76 112 102 112 84 110 78 94 88 98 100 94 76 96 88 82 94 104 98 78 90 100 86 82 86 102 158 80 106 82 88 94 136 90 100 92 116 84 96 86 94 80 84 98 102 98 88 114 100 102 88 152 94 138 72 84 82 98 120 154 132 86 116 106 82 82 108 76 106 90 120 74 108 84 100 74 110 90 86 76 138 100 96 82 90 140 92 108 184 86 128 100 116 94 114 106 98 82 88 160 94 80 178 94 92 80 84 138 90 162 84 94 88 90 82 98 82 104 98 180 78 88 84 84 158 98 94 100 84 90 90 94 96 86 112 96 90 118 88 106 90 96 96 90 84 86 80 92 76 88 96 72 98 142 82 94 84 96 90 100 84 96 80 102 88 78 88 84 72 96 84 102 90 102 74 92 100 124 94 100 90 146 88 128 88 94 90 88 96 92 84 92 98 102 108 82 82 90 102 86 116 78 128 82 100 74 74 86 106 106 78 90 86 166 98 162 86 78 80 126 104 132 94 106 98 100 86 102 110 102 104 82 124 110 82 82 98 90 106 106 82 102 72 74 80 100 68 98 80 66 82 82 88 94 68 90 90 90 194 110 92 102 104 86 160 114 112 118 98 174 74 92 82 102 84 100 100 96 96 98 86 80 94 90 84 94 78 168 68 102 98 100 84 98 128 96 146 240 116 90 88 72 92 98 92 96 102 138 100 110 90 86 104 108 92 86 154 108 82 86 106 100 102 88 200 102 88 120 92 88 116 84 120 94 104 88 86 88 88 150 98 90 162 86 86 90 76 96 86 118 96 124 96 102 98 80 146 166 136 192 88 112 90 94 108 144 86 98 116 70 112 84 92 98 86 80 100 98 98 68 108 98 88 66 90 90 88 138 88 96 100 82 98 100 88 76 92 96 80 104 114 86 92 102 98 68 96 80 78 88 116 84 84 112 100 98 98 80 88 80 88 104 102 122 110 80 86 82 152 70 106 104 176 94 100 130 98 84 90 88 98 74 94 94 132 150 72 90 80 102 100 160 110 104 106 98 94 84 106 94 92 84 104 108 98 86 90 138 86 96 112 108 94 102 100 106 148 116 88 100 84 96 96 84 114 98 100 84 90 98 104 92 75 92 100 104 116 100 104 94 102 80 84 86 104 146 106 88 74 114 184 78 100 90 158 92 94 84 104 70 94 160 98 78 126 106 84 102 86 86 114 106 86 88 86 148 102 90 140 92 78 160 98 80 148 90 90 100 84 130 90 120 94 84 90 94 88 106 86 94 92 86 116 100 88 102 98 110 90 98 104 84 84 118 98 134 94 86 86 92 98 162 80 82 112 98 92 88 136 94 174 90 86 80 80 120 72 66 82 108 114 140 76 98 94 102 92 110 80 96 150 94 90 126 92 94 82 96 86 86 160 102 66 90 170 118 120 116 84 100 94 76 98 84 96 110 106 92 98 110 104 90 82 112 140 98 106 102 82 82 104 104 78 88 80 102 92 96 94 102 92 84 102 96 98 86 110 106 112 84 108 85 106 78 78 100 84 94 86 102 94 88 108 98 108 88 78 88 82 96 92 158 166 64 88 98 74 96 88 76 90 84 84 78 84 110 88 128 90 90 98 96 94 78 104 94 90 104 106 88 102 98 92 158 78 98 100 110 82 156 90 98 88 108 80 86 94 120 88 86 96 88 92 76 70 104 86 114 126 84 92 82 88 114 90 104 136 90 134 70 74 102 120 108 134 96 164 94 92 86 74 68 88 82 104 98 90 102 120 100 118 98 100 86 78 110 126 74 142 84 86 84 90 142 102 84 98 84 88 86 72 108 98 88 148 114 92 118 104 86 106 112 146 96 112 86 96 86 88 82 88 154 94 100 90 106 134 90 92 118 92 128 104 104 92 84 82 84 130 96 94 102 84 88 84 98 90 102 136 90 118 80 86 102 110 92 100 82 108 104 86 76 104 84 88 92 76 84 116 84 82 156 76 86 64 88 98 94 88 104 92 110 96 92 96 90 78 88 90 116 154 100 90 94 104 142 90 86 132 110 72 102 102 80 80 74 100 94 108 92 92 150 86 96 98 158 108 68 86 78 102 88 114 66 76 210 90 86 88 94 102 88 98 90 156 90 78 78 106 100 94 92 86 100 110 90 94 88 106 134 104 86 80 124 80 94 104 92 86 92 86 86 138 86 108 106 82 100 94 96 118 96 94 106 144 108 88 120 92 106 84 94 102 108 122 78 92 126 108 88 88 82 106 126 104 104 96 60 108 98 92 78 92 88 102 90 90 96 114 96 108 88 92 164 108 94 78 90 100 102 86 86 82 128 100 192 86 100 102 94 86 84 82 104 114 104 124 94 92 92 86 98 106 130 80 102 78 114 82 90 104 82 86 116 90 98 130 78 120 162 108 134 82 98 88 90 90 78 86 108 106 88 90 76 100 80 96 108 102 80 98 88 160 88 76 160 96 92 116 86 98 92 100 90 92 148 76 80 90 78 90 66 72 82 100 94 108 94 148 102 86 80 102 90 96 94 96 94 74 90 98 120 106 96 88 108 88 84 164 94 96 98 94 90 114 126 86 146 144 78 98 106 158 122 84 92 92 94 72 96 112 100 144 88 96 102 92 68 90 84 86 90 98 144 78 78 94 76 88 90 80 98 96 94 100 84 78 92 84 86 90 88 80 102 136 98 102 84 80 118 124 88 106 92 86 106 112 106 96 82 122 86 82 154 88 140 84 74 94 96 90 146 136 76 90 98 132 82 94 104 152 118 92 90 108 102 72 98 114 102 110 80 94 100 94 94 90 116 92 78 64 80 86 166 96 92 104 86 106 90 118 94 110 94 90 96 116 86 92 100 94 118 92 104 84 104 120 90 82 98 88 106 88 126 150 86 96 78 104 92 110 132 124 98 100 96 90 186 128 84 100 88 90 82 98 134 90 106 100 90 94 118 84 110 144 100 96 78 68 106 94 158 92 136 100 102 96 112 88 92 136 90 68 106 94 122 94 100 92 94 90 98 102 106 102 102 96 96 128 90 100 100 90 118 106 114 92 74 84 86 96 76 82 86 98 102 112 88 98 82 90 108 118 128 108 86 120 84 106 98 102 84 142 80 84 72 90 134 104 88 84 92 138 98 84 82 94 88 92 98 104 90 80 88 92 92 80 90 104 102 76 90 100 88 92 132 128 96 138 92 86 80 102 104 86 100 86 92 106 88 94 126 92 102 70 82 80 106 84 90 102 72 150 80 84 104 100 92 150 88 154 96 112 86 88 90 86 70 82 90 88 88 74 98 98 100 92 98 90 112 92 80 92 78 96 92 102 100 82 102 88 104 78 78 150 90 78 114 110 80 90 102 92 90 106 78 80 102 98 132 84 100 102 84 96 84 86 70 84 88 68 108 84 90 84 104 130 88 114 72 184 172 88 74 104 114 114 86 88 94 120 74 110 82 90 86 156 94 84 104 106 84 88 96 132 82 108 92 98 104 98 94 82 96 104 96 92 98 172 114 108 138 98 84 106 84 82 102 120 92 78 102 164 76 110 80 102 86 138 114 108 96 96 92 92 110 104 98 108 82 90 84 114 96 82 98 102 114 106 92 82 112 84 102 104 108 68 96 92 134 110 126 88 90 88 92 92 92 84 80 78 146 80 86 92 108 136 92 92 86 98 88 90 94 108 98 124 106 100 102 90 136 74 120 118 90 92 82 98 76 88 92 102 78 86 112 96 82 84 118 102 80 108 100 86 90 74 92 112 82 152 124 102 140 148 98 86 94 86 146 88 90 92 96 120 96 102 80 106 84 98 82 92 74 96 84 96 114 98 74 80 88 76 84 76 110 88 64 66 90 104 122 160 118 86 108 92 88 92 112 108 98 112 180 102 102 92 88 88 86 88 106 146 162 114 102 90 90 94 86 106 120 92 98 102 126 100 78 102 116 92 142 106 108 94 74 100 96 108 82 80 92 84 96 132 94 94 86 96 84 146 134 112 128 88 86 98 82 92 114 88 72 84 96 96 92 58 82 100 78 108 84 86 68 94 110 98 80 126 102 160 88 108 100 76 84 98 86 152 120 94 90 92 80 96 108 96 98 102 78 110 84 98 190 166 120 102 100 100 84 96 98 86 90 86 96 100 82 92 98 94 90 140 108 104 92 168 92 128 94 90 120 72 104 84 64 116 68 78 110 114 70 116 72 88 90 98 112 80 184 84 88 96 76 160 100 110 90 82 100 114 124 88 114 120 108 92 90 86 102 100 98 96 122 80 104 84 82 96 90 134 94 82 96 82 142 112 220 82 80 82 108 92 80 82 92 110 90 78 122 102 104 200 104 94 120 110 88 112 80 114 162 104 80 82 82 92 84 80 82 94 86 116 124 82 100 84 108 110 84 110 78 102 92 74 88 76 86 98 88 116 90 82 98 98 122 90 76 70 90 100 82 94 86 86 90 138 110 102 98 88 114 90 92 90 86 76 98 86 86 94 102 80 78 120 74 88 92 72 90 102 88 120 92 84 100 88 100 108 90 108 82 86 108 90 102 94 108 88 88 92 88 90 104 94 100 158 78 98 104 76 94 102 92 78 94 118 90 82 188 106 108 102 98 144 78 80 96 82 90 134 92 94 94 108 112 90 156 108 106 88 156 94 98 92 182 76 100 98 88 90 106 102 92 124 146 120 86 104 78 72 98 106 104 92 112 98 88 108 104 88 104 104 100 138 110 80 92 100 124 144 90 140 170 104 82 104 90 88 94 84 108 102 74 82 84 108 108 126 94 126 86 90 110 88 122 96 88 180 88 108 90 76 94 110 92 102 74 92 92 86 118 92 84 106 86 106 112 96 90 96 118 96 104 70 146 98 92 84 92 92 100 90 84 94 84 92 106 114 90 82 110 96 104 126 94 108 92 136 102 86 100 84 88 110 60 78 96 84 94 112 82 96 86 92 74 82 88 80 76 106 100 84 96 92 82 110 90 72 114 74 138 74 84 96 96 104 86 92 92 82 94 68 98 102 96 76 198 80 94 90 96 102 94 106 94 108 102 94 84 90 82 92 94 90 142 84 88 78 114 74 76 80 76 94 100 130 104 80 92 98 96 98 80 96 108 116 80 88 88 84 92 126 78 98 102 114 140 104 94 86 94 78 100 100 114 86 96 80 86 86 88 116 92 84 70 94 82 96 158 102 76 78 108 144 98 98 74 100 122 122 68 92 92 104 92 94 80 96 92 112 96 108 82 96 88 120 82 100 100 104 86 84 90 104 80 88 116 118 88 124 88 88 120 86 70 124 98 98 84 112 90 120 84 130 92 108 78 162 90 84 102 94 90 114 86 104 74 92 146 144 104 80 82 86 104 94 102 86 100 70 126 92 90 124 132 156 80 80 98 72 104 80 110 106 162 90 118 94 88 76 90 116 114 88 106 84 100 112 122 148 80 90 108 84 112 78 90 110 90 96 90 104 78 92 72 62 106 106 82 98 88 92 84 106 64 72 70 98 84 98 110 86 154 104 104 102 78 96 101 80 158 88 92 112 106 96 98 76 70 92 92 84 86 86 88 88 106 150 94 120 82 102 122 112 108 110 80 108 156 120 88 78 92 78 88 86 86 100 80 118 92 142 94 84 100 96 110 102 92 110 156 82 84 88 80 104 100 80 96 92 104 86 96 96 98 72 90 90 96 80 108 88 106 88 92 102 100 160 122 110 106 118 96 104 104 104 120 116 142 84 82 82 74 104 126 88 92 82 98 124 82 140 100 82 84 208 106 104 78 108 92 108 98 86 100 94 94 82 114 70 98 138 108 88 100 88 94 86 96 96 76 96 74 98 106 86 106 78 96 90 82 148 72 148 90 90 88 78 108 100 94 92 100 84 92 84 98 86 110 84 96 80 106 96 84 70 74 136 104 110 80 116 106 98 90 110 88 84 102 92 100 98 98 86 76 146 76 102 90 118 102 90 110 92 102 126 164 106 90 90 78 90 100 92 98 116 94 82 102 86 92 66 72 88 74 106 120 92 98 110 88 88 82 80 134 92 86 90 68 74 106 94 86 84 92 102 92 112 96 88 72 118 100 144 178 110 110 110 92 100 100 86 92 122 128 92 96 100 82 86 96 90 90 184 174 114 88 72 72 148 102 74 96 81 96 106 102 82 100 96 78 90 122 126 96 86 152 88 92 84 100 88 104 84 134 84 86 118 68 84 100 84 152 90 70 82 138 98 80 104 106 102 80 122 96 96 72 102 102 88 100 88 88 88 78 84 92 86 92 68 114 98 80 80 92 104 96 88 90 118 68 86 120 86 94 118 88 92 92 88 92 78 84 164 100 114 114 92 82 96 84 96 102 88 66 92 84 92 86 86 92 82 114 110 76 74 84 106 76 102 100 82 102 108 92 140 88 82 86 124 94 86 92 104 94 90 104 100 86 92 86 90 88 80 96 90 72 114 88 96 82 88 178 78 106 96 100 98 80 100 100 86 104 92 90 78 86 98 100 84 68 100 82 82 86 96 108 92 98 92 82 98 76 80 98 88 92 80 88 82 86 90 82 88 104 66 94 150 112 90 98 68 168 104 114 76 92 72 92 78 114 106 82 72 74 68 86 108 100 104 92 82 112 94 78 92 128 88 92 84 82 104 80 88 98 104 82 90 104 82 80 98 98 106 84 76 92 108 84 92 110 100 88 96 104 110 82 88 82 80 88 100 124 82 110 80 92 68 84 78 86 90 94 78 86 98 98 112 82 74 88 130 98 78 98 90 72 92 78 66 76 76 90 88 98 100 80 86 88 76 84 84 102 76 90 80 86 102 86 76 98 126 88 94 74 88 86 94 82 70 84 104 102 94 90 80 90 114 114 80 116 116 144 94 92 82 80 78 102 86 96 122 80 74 72 84 80 86 122 90 86 84 68 94 90 162 98 84 98 106 90 84 98 70 104 94 82 94 98 92 92 82 82 88 86 122 78 92 144 76 82 86 78 100 72 92 100 76 66 92 88 86 88 60 100 72 76 86 92 90 78 80 92 122 120 118 68 80 80 90 76 96 72 104 86 78 112 90 86 98 110 88 88 80 84 84 80 98 132 98 82 88 92 86 90 70 98 82 86 78 106 104 86 80 94 96 94 98 88 84 86 98 80 102 94 96 88 90 118 124 80 90 120 98 118 92 74 80 96 96 90 78 116 92 80 74 90 110 84 78 80 96 82 84 88 88 88 96 88 104 92 98 86 92 90 82 86 102 102 122 84 88 90 90 106 104 90 76 82 84 96 98 104 104 82 96 102 80 80 78 88 88 90 98 100 84 90 176 96 84 102 86 114 78 100 80 100 80 86 84 156 90 104 86 94 84 66 92 74 80 88 106 98 84 84 94 92 94 98 88 108 92 76 80 106 102 88 98 94 88 96 88 86 84 100 90 100 90 114 88 126 122 96 88 100 86 104 100 72 78 102 96 100 126 90 88 108 88 104 100 96 96 104 84 118 86 86 98 98 100 88 96 96 90 86 138 90 94 86 112 84 144 102 106 96 72 106 88 72 88 84 90 104 88 88 78 84 132 82 88 82 90 88 78 108 72 90 132 118 88 80 116 106 108 78 92 78 94 90 82 102 90 120 132 102 110 82 172 100 78 112 156 74 92 94 84 98 86 98 74 102 82 104 88 100 94 96 96 88 78 78 86 102 78 114 90 94 90 92 98 140 90 78 104 110 90 82 96 134 90 116 98 86 106 92 102 98 86 86 96 94 72 90 78 88 88 98 102 84 104 70 76 94 86 76 86 106 90 86 90 98 112 90 96 84 102 96 82 92 84 80 86 105 88 104 68 90 90 70 84 84 76 88 88 112 86 128 110 108 130 76 108 96 66 78 80 96 68 94 92 94 86 102 84 88 102 102 96 100 84 82 92 118 136 110 96 99 86 98 100 100 80 82 78 91 98 86 85 88 90 106 90 98 86 86 96 104 174 90 170 73 114 98 82 92 78 96 94 128 80 92 92 86 108 116 78 88 118 92 78 90 92 108 88 93 82 92 98 98 80 90 92 90 166 94 94 74 90 104 94 162 84 92 74 88 94 114 86 93 100 84 78 92 74 102 90 86 86 120 96 86 94 80 94 92 92 118 92 86 78 92 84 76 122 88 86 90 76 98 84 122 102 98 116 94 70 88 72 90 80 92 74 84 86 92 94 118 84 74 84 94 108 106 82 76 92 104 104 150 96 98 98 84 94 74 90 78 88 76 80 94 98 88 84 90 88 72 104 108 92 88 112 86 106 112 84 78 124 108 88 98 160 94 92 116 98 124 88 72 90 106 88 116 86 150 108 78 94 88 98 94 80 92 110 82 92 76 70 102 78 78 66 102 98 68 90 56 96 96 80 82 104 84 84 76 116 108 84 96 78 90 114 92 86 98 76 76 122 90 96 140 98 94 100 102 84 80 100 152 86 90 80 110 78 120 96 106 84 74 78 94 80 70 112 102 80 96 92 118 92 104 100 86 80 104 110 90 94 76 128 82 132 100 100 86 94 100 96 80 88 106 100 96 82 112 100 100 104 108 84 70 80 92 120 92 122 82 90 96 96 94 110 86 76 98 116 88 86 112 88 98 76 96 100 78 92 116 74 104 92 112 88 74 108 72 100 86 94 112 86 78 178 80 96 74 100 82 90 86 72 86 94 74 124 88 96 86 110 98 104 86 74 86 72 114 86 92 116 150 92 88 96 88 98 90 82 90 102 96 106 110 118 94 100 120 86 88 98 80 100 120 106 92 86 98 88 84 106 90 86 82 106 98 120 84 100 104 90 136 94 98 94 96 88 126 84 100 96 102 108 80 80 80 112 84 92 78 90 78 126 94 98 116 84 90 84 78 100 90 76 82 90 102 102 120 112 90 100 100 100 104 82 104 96 72 84 100 110 84 66 84 86 84 82 114 80 84 84 102 122 78 78 76 80 82 80 102 80 104 100 80 96 70 90 72 88 72 82 114 100 94 88 82 84 90 78 92 120 86 96 92 78 86 70 82 104 96 82 84 64 86 96 98 82 82 148 92 100 86 92 90 102 86 162 92 112 106 114 90 118 118 84 82 96 90 82 90 110 148 76 94 134 86 118 108 88 86 82 96 98 76 82 90 104 74 120 90 78 118 100 100 102 116 86 126 84 84 86 90 80 98 110 84 120 118 82 104 136 92 140 104 90 82 90 92 104 120 78 186 96 72 88 90 96 92 94 104 86 102 102 98 68 122 108 88 92 150 96 102 94 102 52 102 120 108 92 134 116 98 94 112 92 84 92 118 86 80 86 90 86 84 88 80 94 96 146 134 84 90 76 144 104 98 82 96 80 88 84 94 96 98 90 92 148 96 82 78 102 98 154 114 98 80 92 90 110 156 186 106 90 104 100 92 122 82 94 114 94 84 100 134 96 96 102 84 98 84 158 78 90 94 106 92 130 88 142 92 96 80 118 128 78 100 90 84 98 112 84 96 94 100 80 94 130 76 122 90 86 84 86 92 108 82 80 104 82 84 90 102 82 80 88 114 86 74 92 102 100 106 104 152 120 122 84 72 82 94 106 88 120 78 104 86 90 82 90 96 78 96 104 88 80 118 120 100 98 94 86 80 94 98 78 96 98 100 96 76 118 90 84 114 84 88 122 62 90 76 92 96 102 84 96 82 120 116 106 140 124 90 104 132 80 90 92 74 82 130 88 100 86 80 82 86 88 88 154 98 98 96 208 86 94 120 82 90 104 118 74 96 86 112 100 90 130 100 98 82 90 88 88 112 110 86 94 106 68 80 122 98 92 118 92 106 96 90 90 94 92 90 68 116 66 116 82 84 106 88 104 96 118 72 82 104 72 86 132 76 82 104 134 94 100 106 88 80 112 152 96 78 78 102 84 84 82 82 90 100 134 84 78 80 76 90 92 86 86 94 102 86 76 82 92 92 96 80 84 80 114 88 98 110 78 102 112 132 106 94 84 88 114 96 104 106 88 94 78 96 68 92 92 90 98 96 90 90 88 100 102 68 86 90 94 102 88 98 102 92 106 86 88 108 100 78 88 114 94 74 88 98 82 88 82 90 84 108 84 86 92 88 74 82 82 84 84 96 106 102 102 88 94 100 96 90 84 126 64 80 80 108 92 114 96 112 88 114 102 86 108 102 82 104 90 106 98 94 106 84 96 92 80 122 104 98 98 82 82 74 100 106 112 96 92 88 82 82 94 84 92 106 74 114 86 94 98 70 100 82 76 86 94 94 92 76 98 106 88 76 98 108 110 130 96 118 86 116 98 80 130 118 140 76 76 92 88 102 96 102 118 94 84 84 86 96 74 92 90 76 80 100 112 100 96 76 78 82 90 86 82 92 72 84 72 84 90 104 110 98 84 100 84 68 78 108 88 92 96 106 76 98 82 86 92 120 110 82 84 104 76 98 90 114 98 88 106 116 104 100 88 100 56 100 92 78 162 120 96 88 156 90 112 100 112 76 88 130 88 86 86 90 86 118 104 78 88 88 124 78 72 92 112 100 76 96 100 96 94 148 90 92 118 108 94 142 78 88 142 80 134 80 100 148 94 126 106 98 92 130 132 190 102 102 106 116 86 94 110 94 86 124 92 84 86 150 106 136 92 108 144 80 106 100 80 76 94 78 76 74 82 166 102 84 78 92 144 88 82 86 86 108 84 106 90 68 76 88 74 92 128 70 114 76 126 140 132 98 92 78 104 88 76 144 98 92 74 102 62 96 106 92 90 90 104 82 200 82 100 128 104 94 160 84 114 110 88 102 94 98 174 98 90 92 120 108 190 98 86 152 166 122 80 168 78 92 112 64 92 94 128 148 94 84 84 180 158 100 106 84 80 88 92 104 116 120 78 88 112 110 146 112 82 82 92 126 90 86 92 84 84 92 138 96 74 102 82 78 92 88 98 100 92 114 102 96 74 106 56 174 92 62 158 102 60 102 98 156 66 62 126 178 94 90 78 114 74 88 146 98 100 84 70 98 102 98 84 94 88 70 92 86 146 144 156 88 84 84 110 82 90 94 90 88 92 78 84 96 86 106 104 72 106 108 82 82 92 84 82 96 106 88 120 86 120 102 90 128 88 82 102 92 114 118 140 94 94 98 64 118 100 90 114 174 82 102 128 108 78 114 98 98 126 84 92 148 94 136 76 102 90 80 94 104 92 70 92 94 102 130 138 62 102 102 96 98 84 108 80 96 100 118 96 142 84 100 82 92 126 94 94 88 80 80 162 86 134 80 112 162 68 84 156 102 74 90 64 106 86 106 58 56 78 62 128 94 116 102 142 76 76 94 80 100 154 148 142 72 86 82 114 106 114 92 144 100 86 74 68 98 78 64 78 94 66 84 102 130 90 94 72 80 72 100 140 142 114 90 112 182 106 244 142 108 80 82 140 98 96 92 82 98 76 100 104 108 72 106 168 112 78 84 102 82 92 92 126 112 174 74 132 126 60 94 148 100 78 72 132 92 74 100 90 104 92 66 94 94 104 92 90 78 82 108 62 84 96 94 76 110 188 98 100 90 80 86 90 90 96 102 98 94 94 110 144 112 82 104 158 168 84 112 128 80 88 104 100 130 100 86 84 100 96 86 80 100 94 128 118 100 88 100 108 84 90 94 58 94 84 142 78 80 110 110 84 96 72 92 94 140 72 158 104 84 92 82 96 128 86 116 90 94 78 74 76 78 88 88 126 132 80 82 82 106 88 98 80 94 82 86 138 164 94 112 90 72 84 104 142 78 116 76 84 108 154 86 86 134 94 62 142 88 72 114 152 76 84 86 94 126 96 70 94 80 90 92 96 88 94 108 76 104 118 82 102 80 118 142 96 84 146 84 114 80 192 94 104 84 78 58 96 86 114 60 154 62 86 78 92 108 90 94 102 102 88 104 82 112 90 78 90 114 84 90 144 136 90 98 100 106 160 92 96 102 94 68 90 126 70 86 120 130 74 138 100 102 70 96 74 156 60 82 92 92 106 156 78 86 96 100 152 72 92 88 106 74 90 84 114 104 88 114 94 82 94 108 80 96 114 74 94 86 110 106 86 126 80 126 92 88 92 86 92 116 88 104 90 106 66 94 132 102 84 100 92 136 84 66 104 56 162 110 86 74 96 110 80 90 124 54 106 86 82 86 96 98 92 74 82 104 88 76 94 90 102 128 134 82 142 80 100 66 104 96 74 106 86 88 120 88 106 100 84 96 86 88 84 106 98 92 78 62 106 90 162 100 130 84 106 84 98 50 60 106 112 92 94 86 84 94 74 96 162 166 104 70 156 136 78 126 118 52 92 92 102 82 62 100 116 104 80 84 122 90 100 82 122 76 132 98 84 96 94 142 88 86 90 132 94 86 78 88 96 88 88 152 92 132 86 102 100 134 104 80 94 92 68 92 138 66 108 92 66 86 80 78 142 86 66 94 98 140 120 76 106 96 110 188 104 106 94 98 112 112 94 96 148 112 86 102 132 92 70 86 92 134 70 104 106 88 72 66 104 86 88 66 84 100 146 104 82 76 74 88 112 72 70 86 102 88 92 104 62 102 86 86 86 86 74 78 48 106 100 100 96 100 154 80 104 80 66 78 90 98 106 100 80 92 90 90 164 104 78 84 86 112 82 84 102 132 120 86 88 110 144 50 100 96 90 86 78 104 118 100 84 94 88 110 108 100 92 92 78 94 92 68 90 94 100 94 94 94 140 76 94 80 176 86 140 122 98 88 88 54 90 94 114 102 78 94 74 106 96 96 90 110 86 86 114 92 136 94 82 100 104 96 128 96 138 90 102 126 96 84 84 96 72 108 80 98 142 72 86 122 94 100 70 80 70 98 64 160 114 92 76 150 96 72 92 120 94 138 104 96 90 84 122 74 92 92 72 96 60 96 100 130 74 72 98 74 150 94 70 66 94 70 192 84 112 98 86 90 100 100 102 66 196 104 78 106 98 142 102 96 90 96 118 86 102 80 100 104 76 86 104 128 70 90 98 124 150 82 100 66 130 114 90 108 116 108 94 86 68 96 80 90 90 88 142 70 76 116 120 102 96 96 80 94 82 84 118 116 56 116 94 92 66 96 62 120 94 78 88 162 98 62 70 78 64 68 70 84 78 90 72 74 74 78 56 80 98 104 88 84 116 76 110 106 96 94 84 88 94 88 64 114 106 86 72 102 114 98 118 74 120 88 100 102 72 50 100 58 124 104 102 62 80 168 84 90 94 96 116 96 86 96 70 86 98 112 100 92 64 62 84 64 86 88 106 84 102 134 74 78 104 68 72 100 64 94 74 128 112 88 102 100 98 150 102 110 66 102 58 104 82 106 78 136 88 54 62 104 82 138 98 72 82 66 140 94 98 98 102 62 92 84 90 106 90 86 56 94 86 98 110 106 98 106 130 88 108 92 106 82 144 176 116 66 148 86 90 72 140 52 102 92 114 132 50 140 138 98 98 106 94 100 164 92 98 88 158 68 96 104 96 152 170 56 94 154 98 58 90 96 68 56 90 72 132 92 90 90 84 92 66 52 94 54 98 80 84 108 88 120 76 70 94 70 158 126 88 112 100 106 72 136 96 106 78 56 88 66 88 142 144 106 86 92 154 104 98 138 58 116 134 74 92 78 142 98 106 122 68 88 104 160 92 96 66 110 146 104 86 148 110 74 74 70 102 72 112 94 80 104 86 86 68 96 86 166 106 110 84 168 56 80 100 84 92 60 82 114 62 148 86 88 80 96 62 94 106 116 92 64 132 92 82 90 84 178 88 96 124 236 98 84 96 94 112 76 98 76 90 82 110 84 88 80 66 88 84 106 86 112 94 84 72 90 92 120 90 90 96 100 108 174 92 92 100 100 90 102 120 116 68 136 100 104 112 98 92 108 66 88 86 86 96 88 68 138 168 106 80 154 86 88 128 82 66 82 108 114 96 92 162 86 88 120 118 86 90 130 138 82 110 66 66 92 102 76 76 92 124 66 130 82 80 92 126 64 134 70 118 126 76 158 76 96 72 128 66 102 80 180 86 84 108 80 136 96 110 94 118 104 72 86 106 94 150 102 94 82 120 110 104 94 96 90 160 92 88 76 86 90 98 108 112 130 94 76 64 80 86 92 100 156 76 82 84 76 136 118 154 82 134 56 76 94 96 172 146 98 110 112 104 46 94 78 84 96 114 92 86 96 106 68 100 112 112 70 134 94 106 122 180 96 84 84 94 102 76 104 84 116 90 130 102 76 78 98 88 100 130 82 90 88 100 96 68 106 90 96 92 82 134 92 82 92 108 100 78 82 114 98 82 110 92 72 90 78 100 138 86 106 82 102 112 110 110 130 96 162 90 96 190 118 100 100 72 120 114 98 100 140 110 102 80 98 144 68 86 98 90 98 74 100 108 88 56 98 78 122 82 82 120 80 104 88 92 80 102 134 114 86 88 104 112 44 92 110 106 96 66 148 76 128 84 136 98 106 92 140 84 84 130 66 106 106 84 64 128 88 150 94 102 82 62 104 64 82 134 106 94 86 92 78 84 168 112 136 110 88 94 112 76 88 142 92 110 108 98 102 116 94 108 94 106 110 114 70 152 120 88 70 128 108 84 96 92 92 74 102 80 80 146 112 98 126 66 56 116 84 90 54 142 104 84 82 150 90 102 94 136 92 76 188 112 136 84 80 120 108 104 92 76 100 86 80 104 134 106 98 96 96 88 86 100 156 82 90 132 102 138 106 106 142 88 96 96 88 56 92 102 60 156 90 133 80 108 136 90 62 46 104 86 104 90 86 74 124 104 114 92 118 82 136 116 70 70 100 116 108 60 84 68 106 82 92 146 84 74 126 84 84 106 128 52 140 96 110 70 156 102 90 76 88 110 64 158 106 114 66 84 88 94 88 90 130 86 116 90 104 102 88 50 68 90 84 98 170 136 100 82 94 104 120 76 84 88 68 116 156 86 76 96 98 150 132 118 96 110 98 146 94 84 90 102 76 110 138 98 86 78 90 118 82 64 94 138 86 94 98 104 98 88 84 100 80 90 114 76 72 86 106 76 136 94 110 90 106 114 112 92 100 80 80 106 94 134 108 102 16 110 70 78 126 108 86 86 86 102 110 72 132 82 90 94 60 106
